Time (s),Acceleration x (m/s^2),Acceleration y (m/s^2),Acceleration z (m/s^2),Absolute acceleration (m/s^2),magnitude
6.450346358,4.031607151,8.546863556,-2.619243383,9.806282107,9.806282107111981
6.452852348,4.548755646,8.298009872,-2.753241539,9.855378468,9.855378467359913
6.455358338,4.836193562,8.051250458,-3.253640652,9.939697158,9.93969715831033
6.457864327,4.979763031,7.967501163,-3.813860178,10.14024872,10.140248719072666
6.460370317,4.998905659,8.058428764,-4.366901398,10.44017048,10.44017048481006
6.462876306,4.886443138,8.262117386,-4.754538536,10.71193479,10.711934789348737
6.465382296,4.692325115,8.58754158,-4.845765114,10.9199462,10.919946195524412
6.467888285,4.479363918,8.956335068,-4.548755646,10.99871887,10.998718874813727
6.470394275,4.244867325,9.221938133,-3.868895054,10.86422526,10.864225258829912
6.472900265,4.041178226,9.468698502,-2.956631422,10.71116437,10.711164369088511
6.475406254,3.835395575,9.657731056,-1.999203324,10.58200559,10.582005589558584
6.477912244,3.670290947,9.847063065,-1.156331539,10.5722651,10.572265096458917
6.480418233,3.636492252,10.01934624,-0.7061817646,10.6822314,10.682231398940568
6.482924171,3.672683716,10.12941647,-0.7444669604,10.80036641,10.800366417654823
6.485430108,3.80907464,10.0767746,-1.230509043,10.84272053,10.842720528409881
6.48793615,3.957429647,9.851848602,-2.003988981,10.80445011,10.804450107416542
6.49044214,4.206283092,9.633803368,-3.047558784,10.94488919,10.9448891874367
6.492948129,4.673182487,9.473484039,-4.167997837,11.35595616,11.355956162438634
6.495454119,5.283651352,9.411270142,-5.027619362,11.90655003,11.906550035352366
6.497960108,5.906383514,9.416056633,-5.422734261,12.36743852,12.367438522011641
6.500466098,6.610172749,9.475876808,-5.144867897,12.64738276,12.647382762041945
6.502972088,7.251748085,9.363413811,-4.692325115,12.73888863,12.738888627709501
6.505478077,7.685148239,9.317950249,-4.299902439,12.820876,12.820875995155797
6.507984067,8.005785942,9.411270142,-3.768396616,12.91764016,12.91764015949917
6.510490056,8.30279541,9.605089188,-3.397209883,13.14287582,13.14287582376492
6.512996046,8.522934914,9.856635094,-3.157927752,13.40769117,13.407691173777996
6.515502035,8.625826836,10.11745262,-3.030808926,13.63647824,13.636478242879424
6.518008025,8.534899712,10.28255749,-3.076272726,13.71272969,13.71272968864275
6.520514015,8.264510155,10.37587738,-3.181855917,13.6413037,13.641303698086988
6.523020004,7.790432453,10.28016472,-3.46420908,13.35564933,13.355649329966804
6.525525994,7.079464912,10.1270237,-3.737289906,12.90901887,12.90901887449586
6.528031983,6.224628925,9.940383911,-3.919144392,12.36595853,12.365958528046232
6.530537973,5.314758301,9.77737236,-4.096213341,11.85844129,11.858441288766697
6.533043963,4.414757729,9.633803368,-4.264009953,11.42287328,11.422873282074718
6.535549952,3.507279873,9.463912964,-4.235296249,10.9455194,10.94551940359669
6.538055942,2.748456001,9.349057198,-4.208974838,10.61481748,10.61481747689642
6.540561931,2.106880426,9.217152596,-4.223331928,10.35525855,10.355258552130685
6.543067921,1.625623941,9.097511292,-4.096213341,10.10872537,10.108725371707665
6.54557391,1.340578914,9.004191399,-4.024428368,9.953322975,9.953322975953816
6.5480799,1.232901812,8.90130043,-3.947858334,9.815232124,9.815232124024593
6.55058589,1.307079315,8.879764557,-3.983750582,9.819824012,9.819824011816078
6.553091879,1.529910922,8.908478737,-4.184747696,9.960609124,9.960609123744055
6.555597869,1.814656854,8.918049812,-4.443471432,10.12763696,10.127636956076305
6.558103858,2.10209465,8.908478737,-4.711467743,10.29454825,10.294548247420536
6.560609848,2.360519648,8.903693199,-4.970191956,10.4666429,10.466642903529287
6.563115838,2.580958366,8.908478737,-5.106582642,10.58770635,10.587706350961108
6.565621827,2.741277456,8.884550095,-5.075475693,10.59293566,10.592935664468664
6.568127817,2.813062191,8.908478737,-4.9319067,10.56399621,10.563996213342739
6.570633754,2.836990356,8.934800148,-4.77637291,10.52106963,10.521069629088085
6.573139744,2.829811811,8.920442581,-4.551148891,10.40649254,10.406492538537831
6.575645785,2.772384167,8.932407379,-4.393222332,10.33317076,10.333170762753776
6.578151723,2.664707184,8.932407379,-4.249652863,10.24441874,10.24441874470577
6.58065766,2.588136673,8.946763992,-4.134498596,10.19004985,10.190049853018445
6.583163702,2.513660192,8.968298912,-4.043570995,10.15378448,10.153784483010812
6.585669692,2.444268227,8.985049248,-3.876073599,10.08610449,10.086104485844468
6.588175681,2.379662037,9.013762474,-3.797110319,10.06621836,10.066218362557304
6.590681619,2.396411896,9.05922699,-3.79471755,10.11000816,10.110008156075484
6.59318766,2.43708992,9.09990406,-3.799503326,10.15794697,10.157946972870805
6.59569365,2.470589399,9.138189316,-3.69900465,10.16331399,10.163313994668734
6.59819964,2.494517565,9.164510727,-3.55992198,10.14317106,10.143171064863232
6.600705629,2.528316259,9.202795982,-3.387638569,10.12718777,10.127187766898343
6.603211619,2.537887573,9.243474007,-3.155534744,10.09158484,10.091584839452304
6.605717608,2.528316259,9.29402256,-2.954238653,10.07465952,10.074659521303534
6.608223598,2.444268227,9.322735786,-2.731706142,10.01748812,10.017488115656905
6.610729588,2.310270309,9.356235504,-2.619243383,9.986837718,9.986837718033993
6.613235577,2.14995122,9.37298584,-2.583351135,9.957351901,9.957351901581353
6.615741567,2.003988981,9.430413246,-2.667099953,10.00310392,10.003103917564502
6.618247556,1.879263043,9.485447884,-2.853740215,10.08212202,10.082122016697374
6.620753546,1.778764486,9.557232857,-3.045166016,10.18713596,10.187135958873649
6.623259535,1.683051586,9.688838005,-3.177070379,10.33440955,10.334409548754524
6.625765525,1.541875124,9.763015747,-3.222533941,10.39608486,10.396084858016359
6.628271515,1.381256819,9.77737236,-3.078665495,10.34326167,10.343261666236119
6.630777504,1.232901812,9.784550667,-2.923131943,10.28601862,10.286018617001915
6.633283494,1.053440213,9.782157898,-2.729313374,10.21026449,10.210264488115111
6.635789483,0.8162516356,9.823135376,-2.489732027,10.16656387,10.166563869573233
6.638295473,0.579362154,9.921240807,-2.279163599,10.19613978,10.19613977772844
6.640801463,0.318544507,9.99302578,-2.145165443,10.22564275,10.225642748528127
6.643307452,0.08614161611,9.988240242,-2.049452543,10.19669649,10.196696486408891
6.645813442,-0.06939185411,9.902098656,-1.968096614,10.0960278,10.096027798328018
6.648319431,-0.2153540403,9.786943436,-1.864906192,9.965365737,9.965365737748764
6.650825421,-0.3257229924,9.652945518,-1.807478428,9.826109653,9.826109652804595
6.65333141,-0.4716851711,9.523733139,-1.860120535,9.715144271,9.715144271098145
6.6558374,-0.6104688644,9.401699066,-1.987239242,9.628797296,9.628797295974811
6.65834339,-0.7779664397,9.296415329,-2.14995122,9.573445566,9.573445565675149
6.660849379,-0.9361918569,9.209974289,-2.274377823,9.532726581,9.532726581556881
6.663355369,-1.07497561,9.152546883,-2.324627161,9.504134807,9.504134807822687
6.665861358,-1.189831018,9.119047165,-2.295913219,9.478604146,9.478604146079125
6.668367348,-1.24965167,9.095118523,-2.271985054,9.457522208,9.457522208768578
6.670873338,-1.275972724,9.114261627,-2.334198475,9.494543376,9.494543375986492
6.673379327,-1.228116274,9.188439369,-2.54506588,9.613170547,9.613170546380259
6.675885317,-1.115653515,9.308379173,-2.796312332,9.783147155,9.78314715477424
6.678391254,-0.950548768,9.42323494,-3.009273529,9.937636885,9.937636885453365
6.680897192,-0.789930582,9.461520195,-3.124428272,9.995319242,9.995319242107508
6.683403233,-0.6583253145,9.317950249,-2.973381281,9.80298859,9.802988590463212
6.685909275,-0.50518471,9.068798065,-2.638386011,9.458297452,9.45829745133901
6.688415213,-0.2775674164,8.889336586,-2.461018085,9.227890259,9.227890258587939
6.690921202,-0.0239282269,8.810373306,-2.513660192,9.161972381,9.161972381095975
6.693427192,0.2177468538,8.858229637,-2.887239695,9.319431262,9.319431262182723
6.695933129,0.36161533,8.898907661,-3.138785124,9.443161296,9.44316129590823
6.698439171,0.423828721,8.764909744,-3.073879719,9.29795731,9.297957309650876
6.70094516,0.4645066857,8.623434067,-2.966202736,9.131141234,9.131141234260372
6.70345115,0.5482555032,8.551649094,-2.908775091,9.049434173,9.049434173124979
6.70595714,0.6798607111,8.752944946,-3.110071182,9.313903509,9.313903508803987
6.708463129,0.6798607111,8.92283535,-2.978166819,9.431260725,9.43126072545445
6.710969119,0.5650052428,9.016156197,-2.504088879,9.374474097,9.374474097624063
6.713475108,0.4716851711,9.119047165,-2.319841623,9.421314837,9.421314836790746
6.715981098,0.4286143482,9.164510727,-2.250449657,9.446506803,9.446506803230092
6.718487088,0.3879363835,9.289237022,-2.367697954,9.594082171,9.594082170271124
6.720993077,0.3257229924,9.430413246,-2.42273283,9.742095454,9.742095453426336
6.723499067,0.2488535494,9.514162064,-2.530709028,9.848131602,9.848131602162232
6.726005056,0.2273181528,9.681659698,-2.970988512,10.12980655,10.129806552393084
6.728511046,0.1722832322,9.760622978,-3.210569859,10.27653644,10.276536442317429
6.731017035,0.0765703246,9.722337723,-2.980559587,10.16924035,10.169240348538125
6.733523025,-0.004785645287,9.782157898,-2.887239695,10.19935239,10.199352386312981
6.736029015,-0.07178468257,9.904491425,-2.817847729,10.29778468,10.297784676928366
6.738535004,-0.1339980662,10.13659477,-2.796312332,10.51607682,10.5160768193767
6.741040994,-0.2679961324,10.18923664,-2.614457846,10.52272565,10.522725647920828
6.743546983,-0.3783650696,10.27537823,-2.633600473,10.614255,10.614255006680269
6.746052973,-0.4621138871,10.3663063,-2.968595505,10.79288724,10.792887232913005
6.748558963,-0.5578267574,10.4216404,-3.141177893,10.89902554,10.899025546976917
6.751064952,-0.5961119533,10.38574791,-2.939881802,10.81027354,10.810273545136
6.753570942,-0.5937191248,10.49820995,-2.954238653,10.92210788,10.92210788137123
6.756076931,-0.6008976102,10.58913708,-2.908775091,10.99781226,10.997812262763766
6.758582921,-0.660718143,10.73509979,-2.937488794,11.14933883,11.149338831546155
6.76108891,-0.766002357,10.83799076,-2.903989315,11.24641975,11.246419753255216
6.7635949,-0.8066803217,11.05125141,-2.896811008,11.45305221,11.453052208233183
6.76610089,-0.8282157183,11.32164001,-3.153141975,11.78167128,11.781671278158242
6.768606879,-0.9361918569,11.4077816,-2.949453115,11.82003426,11.82003425984069
6.771112869,-1.082154036,11.47717381,-2.691028118,11.83799849,11.837998494443545
6.773618858,-1.230509043,11.58754253,-2.769991398,11.97740151,11.97740150176396
6.776124848,-1.340578914,11.61864948,-2.506481647,11.96129666,11.961296660919063
6.778630838,-1.422233939,11.74307632,-2.329412937,12.05606717,12.05606716411497
6.781136827,-1.51555407,11.83400345,-2.13559413,12.12028482,12.120284818509667
6.783642817,-1.611266971,11.82443237,-1.943869352,12.0909888,12.090988800846036
6.786148806,-1.656730533,11.78136158,-1.840977907,12.03887189,12.038871890328291
6.788654796,-1.659123421,11.66172028,-1.72372961,11.90460642,11.904606427071196
6.791160785,-1.649552107,11.56122208,-1.671087503,11.79726288,11.797262885070861
6.793666775,-1.565803289,11.49392319,-1.812264085,11.74079688,11.740796878885346
6.796172765,-1.443769336,11.46042442,-2.106880426,11.74158179,11.741581789161465
6.798678754,-1.3310076,11.42931747,-2.24566412,11.72364647,11.723646463501035
6.801184744,-1.197009563,11.52054405,-2.528316259,11.85530051,11.855300511055281
6.803690733,-1.067797065,11.71436214,-2.798705101,12.091287,12.091286993593835
6.806196723,-1.031904817,11.90578842,-2.693420887,12.25018945,12.25018944864453
6.80870266,-0.9888339639,12.09512043,-2.482553482,12.38679953,12.386799530764835
6.81120865,-0.9074779749,12.40379429,-2.350948334,12.65719507,12.657195073660775
6.81371464,-0.8114659786,12.80608749,-2.331805706,13.04191979,13.041919785311283
6.816220629,-0.7540382147,13.15065384,-2.221735716,13.35830751,13.358307514070964
6.818726619,-0.7085745931,13.50987625,-2.257628202,13.7155284,13.715528401879624
6.821232608,-0.684646368,13.86192036,-2.458625317,14.09490742,14.094907419546658
6.823738598,-0.6415755749,14.27587891,-2.734098911,14.54948915,14.549489156888718
6.826244588,-0.6391827464,14.68535042,-2.791526794,14.96197491,14.961974915869547
6.828750629,-0.6966105103,15.05414486,-2.583351135,15.2900702,15.290070201134807
6.831256567,-0.6990033388,15.39631844,-2.140379906,15.56009168,15.560091687247416
6.833762504,-0.5841478109,15.8249321,-1.778764486,15.93529754,15.935297541346523
6.836268546,-0.3783650696,16.37318802,-1.695015788,16.46503946,16.465039465052435
6.838774535,-0.1794617027,17.16341782,-2.140379906,17.29729296,17.297292964757176
6.841280525,-0.1220339537,18.21895218,-3.042773008,18.47169668,18.471696684419534
6.843786515,-0.4262215197,19.3707962,-3.959822416,19.77598554,19.775985532257195
6.846292504,-1.161117196,20.33540344,-4.165605068,20.79012005,20.79012005239407
6.848798494,-2.204986095,21.14956093,-3.981357813,21.6337029,21.633702901862684
6.851304483,-3.411566973,21.69303131,-3.342175007,22.21253093,22.212530932005926
6.853810473,-4.651647091,21.91316986,-2.523231506,22.54310385,22.543103850297374
6.856316463,-5.870192051,21.74328041,-1.577767372,22.57695169,22.576951689359245
6.858822452,-6.808776855,21.40080833,-0.8377870321,22.47344937,22.473449369194217
6.861328442,-7.538887024,20.89083672,-0.1746760458,22.21018658,22.210186585062996
6.863834431,-8.051250458,20.44786644,0.2512463629,21.97728374,21.97728374072633
6.866340421,-8.451150894,19.90200233,0.2632105052,21.62361968,21.623619677254084
6.86884641,-8.731410027,19.32264137,-0.1363908947,21.20425884,21.20425884225593
6.8713524,-8.874979019,18.84646988,-0.9218349457,20.85196535,20.851965355633777
6.87385839,-8.941978455,18.43460464,-1.903191328,20.5770689,20.57706889121403
6.876364379,-9.013762474,18.16630936,-2.81545496,20.47411772,20.47411771805327
6.878870369,-9.061619759,18.08734703,-3.55992198,20.54113239,20.541132387091906
6.881376358,-9.05922699,18.28624916,-4.017250061,20.79891343,20.798913434373194
6.883882348,-9.12861824,18.75045776,-4.201497555,21.27354975,21.273549748123276
6.886388338,-9.229117393,19.40908241,-4.148855209,21.88840075,21.888400750104903
6.888894327,-9.296415329,20.05544281,-3.847359657,22.43760907,22.437609066136215
6.891400317,-9.190832138,20.42393684,-3.454637766,22.66148966,22.66148965817288
6.893906306,-8.656932831,20.28993988,-3.361317635,22.31417941,22.314179407224948
6.896412296,-7.373782158,19.82304001,-4.089034557,21.54172189,21.541721894037163
6.898918285,-5.456233978,19.46890259,-5.676373482,21.00071125,21.00071125435382
6.901424275,-3.49531579,19.58136559,-7.862216949,21.38835118,21.388351179887668
6.903930265,-1.929512382,19.8972168,-9.62901783,22.18874126,22.188741261931725
6.906436254,-0.6750751138,20.12244225,-10.19162941,22.56629607,22.56629607500163
6.908942244,0.4286143482,20.11047745,-9.734301567,22.34662481,22.346624812793095
6.911448233,1.3310076,19.74407768,-8.736195564,21.63148857,21.63148856638362
6.913954223,1.927119493,18.90629005,-7.632505894,20.47966649,20.479666482073732
6.916460213,2.293520451,17.69013786,-6.751348972,19.0730681,19.073068093693948
6.918966202,2.707777977,16.35165215,-6.152844429,17.67953857,17.6795385735828
6.921472192,3.325425386,15.31256962,-5.621338367,16.64730271,16.647302706489914
6.923978181,4.153641224,14.64706516,-5.140082359,16.06890475,16.068904750364943
6.926484171,5.082654476,14.15863037,-4.989334106,15.84908973,15.849089730895715
6.92899016,6.026024818,14.01266861,-5.250152111,16.13170648,16.131706477290898
6.93149615,6.973881721,14.54178143,-5.609374523,17.07523106,17.075231065952586
6.93400214,7.606184959,15.8943243,-5.911169052,18.58562655,18.585626547023132
6.936508129,7.704290867,17.39312935,-6.933203697,20.24713214,20.24713213897873
6.939014119,7.43360281,18.46092606,-8.467900276,21.62798134,21.627981339318467
6.941520108,6.748956203,19.57658005,-8.805587769,22.50176153,22.501761536413824
6.944026098,5.726622581,20.826231,-8.046463966,23.04933158,23.049331578306486
6.946532088,4.165605068,20.90758705,-6.892525673,22.40505238,22.405052376391335
6.949038077,2.480160713,17.08415604,-4.433900356,17.82355343,17.8235534371885
6.951544067,2.470589399,9.897313118,-0.6942176819,10.22460548,10.224605475227328
6.954050056,4.151247978,2.877668381,0.7109674215,5.10091264,5.1009126399391125
6.956556046,6.504888535,-1.90079844,-0.5338985324,6.797915651,6.797915651519939
6.959062035,9.221938133,-4.09860611,-2.528316259,10.40360986,10.403609858089288
6.961568025,11.98953724,-3.914358854,-3.780360699,13.16671316,13.16671316167322
6.964074015,14.331213,-1.671087503,-3.990929127,14.97009401,14.97009401409319
6.966580004,15.90868092,1.898405671,-3.76361084,16.4576681,16.457668099127
6.969085994,16.61037636,5.858228207,-3.718147278,18.00133494,18.001334942915655
6.971591983,16.53350639,9.461520195,-4.165605068,19.49947342,19.49947341676464
6.974097973,15.90389538,12.33200932,-4.61814785,20.6479934,20.647993405922325
6.976603963,14.7643137,14.49153233,-4.292723656,21.12858122,21.12858122757477
6.979109952,13.01665592,15.47558022,-3.710968733,20.55962556,20.559625566206936
6.981615942,10.73031425,14.99910927,-3.768396616,18.82322331,18.823223311979095
6.984121931,8.024929047,13.35434341,-4.237689018,16.14608257,16.14608256930679
6.986627921,5.147260666,11.17567825,-4.285545349,13.02904355,13.029043543161922
6.98913391,2.506481647,8.934800148,-3.964607954,10.09114563,10.09114563170945
6.9916399,0.2560320199,6.868597507,-3.734897137,7.822572514,7.822572513716411
6.99414589,-1.522732496,5.144867897,-3.663112402,6.496673949,6.496673949155968
6.996651879,-2.870489836,3.804288864,-3.571886063,5.955727974,5.9557279745122145
6.999157869,-3.840181351,2.822633505,-3.303889751,5.799132711,5.799132710921488
7.001663858,-4.424329281,2.140379906,-2.973381281,5.744293862,5.74429386181833
7.004169848,-4.627718925,1.697408557,-2.705385208,5.622818456,5.622818455351834
7.006675838,-4.369294167,1.474876046,-2.477767944,5.235009537,5.235009537064742
7.009181827,-3.694219112,1.438983679,-2.305484533,4.586195353,4.586195352118864
7.011687817,-2.679064035,1.587338686,-2.255235434,3.844881672,3.844881671842692
7.014193806,-1.450947881,1.848156333,-2.298306227,3.286813517,3.286813517322419
7.016699796,-0.1842473447,2.178664923,-2.32701993,3.193047084,3.1930470847384638
7.019205785,1.039083242,2.54506588,-2.34137702,3.610969491,3.6109694913041683
7.021711775,2.164308071,2.884846687,-2.35812664,4.308982605,4.308982604277755
7.024217713,3.083451033,3.177070379,-2.42273283,5.046888232,5.046888232523856
7.02672365,3.804288864,3.346960783,-2.520838737,5.659451227,5.659451226192708
7.029229692,4.309473515,3.423531055,-2.674278498,6.119141471,6.119141471309599
7.031735681,4.66839695,3.468994617,-2.875275612,6.488070867,6.488070867407835
7.034241671,4.900799751,3.471387386,-3.119642496,6.767609467,6.767609466121009
7.03674766,5.022833824,3.392424345,-3.339782238,6.920371952,6.920371952238365
7.03925365,5.077868938,3.299104214,-3.547957659,7.018322101,7.0183221012144035
7.04175964,5.077868938,3.177070379,-3.684647799,7.032436175,7.032436174420639
7.044265629,5.018048286,3.069094181,-3.766003847,6.984477981,6.984477981073058
7.046771619,4.922335148,2.956631422,-3.770789385,6.869490902,6.869490902594063
7.049277608,4.807479858,2.820240498,-3.69900465,6.689413611,6.6894136105010436
7.051783598,4.694717884,2.726920605,-3.598206997,6.513337515,6.513337515405045
7.054289588,4.61814785,2.683849812,-3.468994617,6.36900801,6.369008009934281
7.056795577,4.53918457,2.667099953,-3.303889751,6.215569661,6.215569660665185
7.059301567,4.436293125,2.602493763,-3.095714331,6.003092344,6.003092344495039
7.061807556,4.383651257,2.607279301,-2.889632463,5.862105378,5.86210537841518
7.064313546,4.328616142,2.635993242,-2.657528639,5.722572546,5.72257254595849
7.066819535,4.247260094,2.600100994,-2.432304144,5.542187919,5.542187919405499
7.069325525,4.144069672,2.561815739,-2.240878344,5.362625203,5.362625204094211
7.071831515,4.067499161,2.540280342,-2.059023857,5.218922579,5.218922578883739
