Time (s),Acceleration x (m/s^2),Acceleration y (m/s^2),Acceleration z (m/s^2),Absolute acceleration (m/s^2),magnitude
5.035345784,24.02483749,7.072286606,-7.103393078,26.03206192,26.032061913703547
5.037851878,24.1516571,7.278069019,-7.002595425,26.17841042,26.178410417890905
5.04035792,24.18994141,7.474280834,-7.004988194,26.26952605,26.269526052116202
5.042863961,24.13012123,7.642077446,-7.132106781,26.29697788,26.296977875808178
5.045370055,23.94108772,7.773682594,-7.376174927,26.23001676,26.230016752619445
5.047876097,23.7062912,7.833503246,-7.65404129,26.1139113,26.113911304768475
5.05038219,23.35933304,7.795217991,-7.888537884,25.85832349,25.858323486803023
5.052888232,22.97857475,7.644470215,-8.034500122,25.51481951,25.51481950984129
5.055394326,22.58345985,7.390532017,-8.134998322,25.11594753,25.11594752323326
5.057900367,22.16202354,7.041179657,-8.257331848,24.6762442,24.676244195534697
5.060406461,21.72413826,6.591030121,-8.41047287,24.20983096,24.20983095960257
5.062912503,21.25245285,6.035595894,-8.534899712,23.68416524,23.68416523821434
5.065418597,20.77837372,5.377270699,-8.635397911,23.13495087,23.13495086875297
5.067924638,20.30190277,4.675575256,-8.729017258,22.58813853,22.58813853214813
5.070430732,19.8589325,3.943072557,-8.798408508,22.07571094,22.075710939921496
5.072936774,19.44976044,3.191427231,-8.84387207,21.60306603,21.603066035511794
5.075442867,19.05703735,2.451446772,-8.886942863,21.16974297,21.169742966920285
5.077948909,18.72174263,1.721336842,-8.870193481,20.78814518,20.78814517983653
5.080455003,18.39392662,1.015154958,-8.748159409,20.39356195,20.393561953125594
5.082961045,18.05624008,0.3352942765,-8.472685814,19.94809848,19.948098480336636
5.085467138,17.64198303,-0.304187566,-8.032107353,19.38676982,19.38676981439233
5.08797318,17.19213104,-0.9481559992,-7.407281399,18.74396402,18.74396402096744
5.090479274,16.69891167,-1.537089467,-6.736992359,18.0721709,18.072170899956898
5.092985315,16.22244072,-2.035095692,-6.243771553,17.50125369,17.501253686395245
5.095491357,15.69093418,-2.477767944,-6.107380867,17.01895562,17.018955622481773
5.097997451,15.19771385,-2.853740215,-6.368198395,16.72328587,16.723285869686933
5.100503492,14.70210075,-3.179463148,-6.870990276,16.53696646,16.536966461401775
5.103009586,14.20170116,-3.473780155,-7.476673603,16.42120923,16.42120922980443
5.105515628,13.73958778,-3.754039526,-8.060821533,16.36599918,16.365999172490877
5.108021722,13.31845093,-4.026821613,-8.477471352,16.29306441,16.293064414091123
5.110527763,12.92812157,-4.311866283,-8.616254807,16.12353451,16.12353450922973
5.113033857,12.62662601,-4.60379076,-8.46072197,15.88113315,15.881133146344142
5.115539899,12.41575813,-4.91754961,-8.087141991,15.61202132,15.612021319869752
5.118045992,12.35833073,-5.2238307,-7.577471256,15.40892002,15.408920022176474
5.120552034,12.37747288,-5.539982796,-6.966702938,15.24559589,15.245595891976452
5.123058128,12.45165062,-5.870192051,-6.246164322,15.11678956,15.116789560472014
5.12556417,12.57368469,-6.193522453,-5.508875847,15.06004582,15.060045821876356
5.128070263,12.68644619,-6.451947212,-4.773980141,15.01214262,15.012142623385326
5.130576305,12.83958721,-6.717849731,-4.065106392,15.0502357,15.050235702797867
5.133082399,12.98554897,-6.966702938,-3.35413909,15.11322868,15.113228672711596
5.13558844,13.1458683,-7.220641613,-2.669492722,15.23409696,15.234096955748415
5.138094534,13.27298737,-7.440781116,-1.946262121,15.34031791,15.340317910136058
5.140600576,13.40459251,-7.649255753,-1.292722464,15.48758682,15.48758681340905
5.143106617,13.53859043,-7.859824181,-0.6415755749,15.66786157,15.667861570930098
5.145612711,13.66301727,-8.041678429,-0.04067798331,15.85396757,15.853967565694346
5.148118753,13.7853508,-8.214261055,0.5458626747,16.05639896,16.05639895550621
5.150624847,13.87388515,-8.365009308,1.096511006,16.23762318,16.23762317165281
5.153130888,13.95763397,-8.506185532,1.563410521,16.41995709,16.41995708893533
5.155636982,13.99352551,-8.642576218,1.955833435,16.56315683,16.56315683402243
5.158143024,14.02702522,-8.781659126,2.193022013,16.69384076,16.693840752723073
5.160649117,14.08923912,-8.95154953,2.319841623,16.8528503,16.852850296741643
5.163155159,14.11316681,-9.166903496,2.250449657,16.97875498,16.97875498293541
5.165661253,14.07966709,-9.404091835,2.051845312,17.05532286,17.055322858002985
5.168167295,14.05095387,-9.609874725,1.730908036,17.11067034,17.110670340934956
5.170673388,13.99113274,-9.779765129,1.321436286,17.12138415,17.121384149205394
5.17317943,13.92891979,-9.9140625,0.8811569214,17.11957591,17.119575908599227
5.175685524,13.86909962,-9.959526062,0.4525425732,17.08065802,17.08065802098092
5.178191565,13.73958778,-9.892526627,0.0,16.93039738,16.930397379572323
5.180697659,13.51944828,-9.712766647,-0.4381856322,16.65248703,16.652487032961087
5.183203701,13.16740417,-9.425627708,-0.9002995491,16.21830847,16.218308467409923
5.185709795,12.68405342,-9.028120041,-1.357328653,15.62800383,15.628003829932162
5.188215836,12.09990597,-8.527720451,-1.764407635,14.90781254,14.907812544960834
5.19072193,11.41256714,-7.953144073,-2.24566412,14.09050023,14.090500229259362
5.193227972,10.67527866,-7.256533623,-2.712563515,13.19002864,13.190028639593246
5.195734013,9.794121742,-6.488138676,-3.049951553,12.13766735,12.137667348043909
5.198240107,8.831908226,-5.659623623,-3.382853031,11.02168939,11.02168939391108
5.200746149,7.821538925,-4.788337231,-3.756432533,9.91036982,9.910369819943739
5.203252242,6.780063152,-3.878466368,-4.08424902,8.814354643,8.814354642864458
5.205758284,5.688337803,-2.956631422,-4.319045067,7.730006896,7.730006896334158
5.208264378,4.53918457,-2.039881229,-4.29750967,6.575249148,6.57524914757579
5.21077042,3.418745279,-1.158724308,-4.045963764,5.422202881,5.422202881139354
5.213276513,2.374876499,-0.375972271,-3.598206997,4.327642213,4.3276422134140375
5.215782555,1.412662625,0.3352942765,-2.968595505,3.30463269,3.3046326900628085
5.218288649,0.4812564552,0.9361918569,-2.204986095,2.443363798,2.4433637976651963
5.22079469,-0.347258389,1.462911963,-1.407876968,2.05981003,2.059810029406659
5.223300784,-0.9912267923,1.90079844,-0.8428717852,2.303475224,2.3034752244306897
5.225806826,-1.479661703,2.317448616,-0.4525425732,2.786532186,2.786532186012509
5.22831292,-1.860120535,2.731706142,-0.02153540403,3.304955465,3.3049554648430512
5.230818961,-2.142772675,3.138785124,0.4334000051,3.825085928,3.825085927896396
5.233325055,-2.288734913,3.574278831,0.5721837282,4.282659324,4.282659323660557
5.235831097,-2.350948334,4.091427803,0.04785645381,4.719007287,4.719007287181283
5.238337138,-2.317448616,4.680361271,-0.8114659786,5.285340741,5.285340741078318
5.240843232,-2.286342144,5.31715107,-1.496411443,5.978185603,5.978185603289179
5.243349274,-2.283949137,5.970989704,-1.745265007,6.626846282,6.626846282383179
5.245855367,-2.386840582,6.612565517,-1.496411443,7.187647591,7.187647590640551
5.248361409,-2.602493763,7.129714012,-0.9912267923,7.654301159,7.654301159030548
5.250867503,-2.913560629,7.467102051,-0.6990033388,8.045809732,8.04580973218736
5.253373545,-3.284747362,7.618149281,-0.8282157183,8.337367988,8.337367988508483
5.255879638,-3.701397419,7.538887024,-1.273579836,8.494537422,8.494537421936595
5.25838568,-4.167997837,7.333104134,-1.903191328,8.646893051,8.646893051281424
5.260891774,-4.687539577,6.973881721,-2.607279301,8.798065634,8.798065633868749
5.263397815,-5.185545921,6.557530403,-3.325425386,8.997196535,8.997196534639128
5.265903909,-5.662016392,6.088238239,-3.962215185,9.210006713,9.21000671282834
5.268409951,-6.088238239,5.61655283,-4.388436794,9.373936635,9.373936635263533
5.270916045,-6.439982891,5.190331459,-4.565505505,9.447579627,9.447579626912022
5.273422086,-6.715456963,4.80508709,-4.338187218,9.327705639,9.32770563980277
5.27592818,-6.878168583,4.414757729,-3.895216227,9.053838871,9.053838871827661
5.278434222,-6.916453838,4.029214382,-3.282354355,8.651343962,8.651343961552335
5.280940263,-6.839883327,3.55992198,-2.626421928,8.145866472,8.14586647168605
5.283446357,-6.626922131,3.021237612,-1.965703845,7.543736822,7.543736822341354
5.285952399,-6.236593246,2.537887573,-1.340578914,6.865356544,6.865356543829466
5.288458492,-5.673980713,3.567100286,-0.6367899179,6.73229255,6.732292550195392
5.290964534,-4.833800793,5.101797104,-0.1052841991,7.028872495,7.028872495597736
5.293470628,-3.751646757,5.235795021,0.1172483116,6.442216238,6.442216238051162
5.29597667,-2.439482689,3.852145433,-0.0382851623,4.559776966,4.559776966098865
5.298482763,-1.120439172,2.238485575,-0.04067798331,2.503568714,2.503568714048267
5.300988805,-0.03349951655,1.333400369,0.5123631358,1.428843849,1.428843848916049
5.303494899,0.7540382147,1.273579836,1.465304732,2.082713899,2.082713899102645
5.30600094,1.225723386,1.977667928,2.384447813,3.331540128,3.3315401281310724
5.308507034,1.448554993,3.375674486,3.169891834,4.851979394,4.851979394271628
5.311013076,1.434198022,5.408377171,3.900001764,6.820372523,6.820372522766317
5.31351917,1.113260746,7.630113125,5.156831741,9.276361862,9.276361861951422
5.316025211,0.4597210586,9.454340935,7.223034382,11.90664233,11.906642333189113
5.318531305,-0.7444669604,10.26341438,10.04806042,14.38246933,14.382469328828364
5.321037347,-2.573779821,9.873384476,12.82762337,16.39072862,16.390728626283664
5.32354344,-5.058726311,9.140582085,13.81645679,17.32153085,17.321530849557256
5.326049482,-7.878966808,9.753444672,11.66889858,17.12807622,17.128076220102972
5.328555524,-10.64417267,12.48754311,7.443173885,18.01771301,18.017713013455104
5.331061617,-12.76062393,16.13629913,3.80907464,20.92182407,20.921824067437775
5.333567659,-13.4285202,19.65075684,3.528815269,24.06096291,24.060962914009536
5.336073753,-14.37667656,22.28196526,8.369794846,27.8069824,27.80698240591432
5.338579795,-15.14985752,24.11576462,15.76989746,32.55423094,32.55423093827373
5.341085888,-14.55613804,25.50180626,20.95305061,36.07289297,36.07289296725911
5.34359193,-11.88185978,26.19871521,20.25883293,35.18482034,35.184820337354566
5.346098024,-7.127321243,25.72942352,13.55055428,29.94026493,29.940264929817747
5.348604065,-1.415055513,23.81636238,3.488137245,24.11200117,24.11200117286633
5.351110159,3.974179268,20.4311161,-6.99063158,21.95662852,21.95662851699171
5.353616201,8.611469269,15.33889008,-15.743577,23.60718468,23.60718468204506
5.356122295,12.83719444,8.867800713,-21.24527359,26.35892829,26.358928287959692
5.358628336,17.02433395,1.563410521,-22.92354012,28.59651885,28.59651885337699
5.36113443,21.36730766,-7.383353233,-21.53001976,31.21886437,31.218864368620725
5.363640472,25.7509594,-17.46012688,-17.56062698,35.7259508,35.725950800739376
5.366146565,29.06681252,-23.26332092,-10.93370438,38.8021595,38.802159498782665
5.368652607,31.25983429,-23.84746933,-4.630111694,39.58935422,39.58935422032628
5.371158701,32.18854904,-21.36252213,-1.185045362,38.6505417,38.65054169821197
5.373664742,31.80809021,-19.1503582,-1.232901812,37.14849753,37.14849753184963
5.376170784,30.32125092,-17.92702675,-4.508078098,35.51167855,35.51167855208317
5.378676878,28.16651344,-17.25673866,-10.42642593,34.63896457,34.63896456620803
5.38118292,25.88495636,-16.03340721,-17.51037788,35.12427147,35.124271466055745
5.383689013,23.57229424,-13.39262867,-23.76371956,36.0517673,36.05176730419703
5.386195055,21.59941101,-9.605089188,-27.02214622,35.90248851,35.90248850182121
5.388701149,20.26601219,-5.286044121,-25.67917442,33.13719227,33.1371922683134
5.39120719,19.55743599,-0.7277171612,-19.53590202,27.65274566,27.65274565942218
5.393713284,19.78714752,3.569493294,-9.844670296,22.38727368,22.38727367481574
5.396219326,20.60369873,7.347461224,1.685444474,21.93942367,21.939423667674692
5.39872542,21.62603188,10.45513916,12.48993587,27.07385617,27.073856167277953
5.401231461,22.14527512,12.51865005,20.40958023,32.61411925,32.614119248872306
5.403737555,21.88206482,13.41416359,23.0718956,34.51198215,34.51198215378628
5.406243597,20.9769783,13.51466274,19.63161469,31.75027595,31.750275950158905
5.40874969,19.82543373,13.10279751,12.99751377,27.08627862,27.08627861800184
5.411255732,19.04507446,12.27218914,6.339484692,23.52680501,23.526805002698104
5.413761826,19.1001091,11.19242764,1.309472203,22.17654891,22.176548910030352
5.416267867,19.9908371,10.06720352,-1.601695657,22.43986594,22.439865945443827
5.418773961,21.7049942,9.109476089,-1.94865489,23.61962285,23.619622853009684
5.421280003,23.73739815,8.28126049,0.3376871049,25.14274008,25.142740081695038
5.423786097,25.23620224,7.558029652,4.206283092,26.67737868,26.67737867873711
5.426292138,25.54517555,7.041179657,7.502994537,27.53959208,27.539592078763988
5.42879818,24.66880417,6.75613451,8.271688461,26.88151935,26.881519352351773
5.431304274,22.97857475,6.471388817,6.315556049,24.69372429,24.69372428310867
5.433810315,20.95305061,6.05713129,2.789133787,21.98859788,21.988597877338684
5.436316409,18.77677917,5.346164227,-1.156331539,19.55724957,19.557249565546954
5.438822451,16.62234116,4.441078663,-4.869693279,17.88125605,17.881256051013917
5.441328545,14.52503204,3.605385542,-7.996214867,16.96805272,16.96805271292852
5.443834586,12.56411362,2.954238653,-10.40489006,16.57848649,16.578486488091592
5.44634068,10.79970551,2.647957325,-12.02782249,16.38028788,16.38028787746709
5.448846722,9.325128555,2.906382322,-12.89222908,16.17450622,16.17450621874152
5.451352815,8.209475517,3.835395575,-13.29691505,16.09079543,16.090795422472706
5.453858857,7.531708241,5.38923502,-13.49551964,16.36763677,16.367636771445273
5.456364951,7.285247803,7.392924786,-13.37587833,16.93057275,16.930572747002184
5.458870992,7.464709282,9.564411163,-12.61196995,17.50033233,17.500332327684497
5.461377086,7.986643791,11.60668564,-11.20439243,18.0011122,18.001112196626696
5.463883128,8.772088051,13.3782711,-9.55005455,18.63145749,18.631457492841722
5.466389222,9.767801285,14.80738449,-8.257331848,19.56660693,19.566606926749852
5.468895263,10.84756279,15.87518215,-7.802396297,20.75014253,20.750142523705964
5.471401357,11.88425255,16.60319901,-8.228617668,22.01390071,22.01390071668282
5.473907399,12.84437275,17.03629875,-9.25783062,23.25770441,23.257704405826548
5.476413492,13.65583897,17.2998085,-10.40728283,24.37369172,24.37369171904116
5.478919534,14.30459309,17.54626846,-11.30967617,25.30615924,25.30615923863462
5.481425576,14.72602844,17.9700985,-11.582757,25.9603662,25.96036620382001
5.48393167,14.87946892,18.73370743,-10.84516907,26.26724351,26.267243509187786
5.486437711,14.76909924,19.7345047,-9.083154678,26.2693865,26.269386498732015
5.488943805,14.32642746,20.826231,-6.586244106,26.12196457,26.121964567310453
5.491449847,13.58883953,21.8413868,-4.134498596,26.0537294,26.053729402134174
5.49395594,12.62662601,22.58345985,-2.46819663,25.9910819,25.991081889704283
5.496461982,11.49870968,23.02403831,-2.037488461,25.81623566,25.81623565963833
5.498968076,10.23948669,23.14368057,-2.676671267,25.44880365,25.44880364717497
5.501474117,8.865407944,23.00011063,-3.684647799,24.92342625,24.923426257407964
5.503980211,7.385746002,22.74647141,-4.275974274,24.29475584,24.29475584573585
5.506486253,5.779264927,22.50449753,-4.000500202,23.57660523,23.576605227225365
5.508992347,4.115355968,22.33699989,-2.920739174,22.89996586,22.89996585481628
5.511498388,2.456232548,22.24367905,-1.446162224,22.42555955,22.425559551266232
5.514004482,0.8883354068,22.18146515,-0.02871387079,22.19926486,22.199264863549306
5.516510524,-0.5338985324,22.16950226,1.041476011,22.20037275,22.20037275318891
5.519016617,-1.742872238,22.15484619,1.649552107,22.28443034,22.284430338114028
5.521522711,-2.765205622,22.1309166,2.075773716,22.3993899,22.399389907051763
5.524028753,-3.571886063,22.05673981,2.45383954,22.47842231,22.478422310766383
5.526534795,-4.228117466,21.97538376,3.162713289,22.60082352,22.600823526013013
5.529040888,-4.591826439,21.83660126,4.010071754,22.67162764,22.671627645724104
5.53154693,-4.713860512,21.5850544,4.845765114,22.61894104,22.61894104324099
5.534052972,-4.543970108,21.22373772,5.530411243,22.39821769,22.398217689504875
5.536559065,-4.167997837,20.72094727,6.102594852,21.99935284,21.999352846459235
5.539065107,-3.61017108,20.17508507,6.70588541,21.56470013,21.56470013565355
5.541571201,-2.856132984,19.65554237,7.397710323,21.1949041,21.194904092828036
5.544077242,-1.98963201,19.21735764,8.101499557,20.94993473,20.94993473190201
5.546583336,-1.086939692,18.8871479,8.673683167,20.81198149,20.811981485961844
5.549089378,-0.1411765367,18.59731674,8.999405861,20.66081863,20.66081863318586
5.551595472,0.7707880139,18.4034977,9.090332985,20.54061818,20.540618187738563
5.554101513,1.599302888,18.32214165,9.126225471,20.5316009,20.531600904891928
5.556607607,2.269592285,18.38196182,9.104690552,20.63838559,20.638385584627187
5.559113649,2.643171787,18.47289085,8.987442017,20.71251234,20.712512340625015
5.561619742,2.762812853,18.56620979,8.769695282,20.71822474,20.718224734907352
5.564125784,2.710170746,18.76242065,8.518149376,20.78298157,20.78298156934827
5.566631878,2.535494804,19.01396751,8.22383213,20.87081957,20.870819564043643
5.56913792,2.209771633,19.2628212,7.869395256,20.9252659,20.925265899107142
5.571644013,1.706979871,19.4210453,7.390532017,20.84971809,20.84971808727766
5.574150055,1.091725349,19.45215225,6.672386169,20.59365991,20.593659912290768
5.576656149,0.4716851711,19.33939171,5.683551788,20.16277063,20.162770631545914
5.57916219,-0.2632105052,19.05943108,4.58943367,19.60597088,19.60597088324491
5.581668284,-1.134796143,18.68824387,3.612564087,19.06800567,19.068005677402198
5.584174326,-2.08534503,18.23570061,2.829811811,18.57141016,18.57141016501911
5.586680367,-3.133999348,17.7954216,2.279163599,18.21245641,18.212456411643586
5.589186461,-4.278367043,17.38834381,1.963011861,18.01422606,18.014226060972494
5.591692503,-5.599802971,17.01476288,1.905584097,18.01363927,18.01363927493236
5.594198597,-6.983452797,16.62712669,2.078166485,18.1534771,18.153477101442984
5.596704638,-8.412865639,16.16740608,2.398804665,18.38248056,18.38248055721299
5.599210732,-9.813264847,15.60957813,2.779562712,18.64631506,18.646315057508843
5.601716774,-11.29292679,14.86720562,3.0981071,18.92517545,18.925175455850592
5.604222867,-12.84676552,13.97199059,3.32063961,19.26869359,19.26869359329818
5.606728909,-14.25912952,12.99751377,3.306282759,19.57523039,19.575230383112626
5.609235003,-15.61675739,12.08794212,3.267997503,20.01702435,20.017024348144353
5.611741045,-16.89751625,11.19960594,3.492922783,20.57079819,20.570798190597706
5.614247138,-18.14477348,10.3471632,4.187140465,21.30325647,21.303256469412982
5.61675318,-19.28435516,9.569196701,5.101797104,22.12429012,22.12429011583944
5.619259274,-20.18704796,8.946763992,5.93031168,22.86329127,22.863291274220174
5.621765315,-20.73291016,8.503792763,6.416054726,23.30952194,23.3095219450273
5.624271409,-20.95783615,8.233403206,6.703492641,23.49375743,23.493757426830623
5.626777451,-20.71376801,8.259724617,7.101000309,23.40315024,23.40315024327266
5.629283545,-19.91875267,8.635397911,7.596613884,23.00076841,23.00076841134915
5.631789586,-18.77917099,9.116654396,8.115856171,22.39727153,22.39727152659722
5.63429568,-17.47927094,9.593125343,8.68803978,21.74936784,21.749367845050113
5.636801722,-16.16262054,10.01216793,9.176474571,21.11116991,21.111169909096937
5.639307815,-14.86720562,10.37587738,9.305986404,20.37876388,20.378763880657438
5.641813857,-13.64148235,10.68963623,9.109476089,19.57909391,19.579093902710433
5.644319951,-12.55214977,10.9049902,8.815158844,18.81973168,18.8197316812849
5.646825992,-11.65693474,10.92891788,8.522934914,18.10982587,18.109825871848763
5.649332034,-10.93609715,10.70877838,8.278866768,17.40160309,17.40160309363733
5.651838128,-10.4096756,10.25384331,8.03928566,16.67731281,16.677312812511154
5.65434417,-10.05523872,9.547661781,7.730611801,15.87539071,15.875390704430421
5.656850263,-9.854242325,8.652147293,7.383353233,15.04924083,15.049240829451836
5.659356305,-9.724730492,7.759325504,6.926024914,14.23893734,14.238937338453601
