Time (s),Acceleration x (m/s^2),Acceleration y (m/s^2),Acceleration z (m/s^2),Absolute acceleration (m/s^2),magnitude
6.198884178,-4.747360229,10.70399284,3.59102869,12.24779078,12.247790776914233
6.201390271,-4.60379076,10.66092205,3.687040567,12.18377677,12.18377677326457
6.203896313,-4.457828522,10.6417799,3.789932013,12.14427022,12.14427022240377
6.206402407,-4.323830605,10.63220787,3.861716747,12.11000461,12.110004604692968
6.208908449,-4.151247978,10.65852928,3.921537161,12.09196262,12.091962615414023
6.211414542,-3.993321896,10.67288589,3.959822416,12.06388439,12.063884389046928
6.213920584,-3.847359657,10.71834946,3.986143351,12.06542706,12.065427066279709
6.216426678,-3.696611881,10.78056335,4.007678986,12.08085165,12.080851642038303
6.218932719,-3.567100286,10.85713387,4.000500202,12.10807838,12.108078385428652
6.221438813,-3.411566973,10.94596672,3.957429647,12.12906534,12.129065341466609
6.223944855,-3.270390272,11.04168034,3.902394533,12.15906412,12.159064123242505
6.226451001,-3.145963669,11.14217854,3.830610037,12.19503191,12.195031909735604
6.228957042,-3.018844843,11.23071289,3.732504129,12.21367771,12.213677712987268
6.231463084,-2.899203777,11.33599758,3.614956856,12.24655612,12.246556117745035
6.233969178,-2.765205622,11.43171024,3.526422262,12.27868133,12.278681326314747
6.236475219,-2.64077878,11.51097202,3.428316593,12.2975422,12.297542196388688
6.238981261,-2.542673111,11.59950733,3.318246841,12.32982234,12.329822340404286
6.241487355,-2.446661234,11.65454197,3.208176851,12.33316255,12.333162547852119
6.243993396,-2.324627161,11.69521999,3.119642496,12.32534914,12.325349137245713
6.24649949,-2.243271112,11.74546909,3.016452074,12.33236768,12.332367677815078
6.249005532,-2.161915302,11.75504017,2.944667339,12.30958622,12.30958622004447
6.251511626,-2.049452543,11.76221848,2.882453918,12.28245007,12.282450076701156
6.254017667,-1.960619092,11.75025463,2.820240498,12.24198789,12.241987892507927
6.256523761,-1.862513304,11.71914768,2.791526794,12.19015997,12.190159965925234
6.259029803,-1.817049742,11.66650581,2.767598391,12.12718551,12.127185511631783
6.261535896,-1.75722909,11.60668564,2.734098911,12.05314492,12.053144920544838
6.264041938,-1.678265929,11.52532959,2.743670225,11.96568113,11.965681133563745
6.266548032,-1.637588024,11.43888855,2.75084877,11.87842728,11.878427284412691
6.269054074,-1.59691,11.35035419,2.779562712,11.79434741,11.794347402738795
6.271560167,-1.556231976,11.2570343,2.81545496,11.70766697,11.707666967687882
6.274066209,-1.53230381,11.15174961,2.832204819,11.60736225,11.607362252770544
6.276572303,-1.525125384,11.05364418,2.877668381,11.52345575,11.523455749295701
6.279078344,-1.510768414,10.95314598,2.913560629,11.43427582,11.43427582310262
6.281584438,-1.491625786,10.87866879,2.949453115,11.36968142,11.369681429378899
6.28409048,-1.494018674,10.80688477,2.97577405,11.30823069,11.30823069392255
6.286596574,-1.477268934,10.75663471,3.028416157,11.27203701,11.272037003475322
6.289102615,-1.46769762,10.73509979,3.088535786,11.26656812,11.266568115731353
6.291608709,-1.450947881,10.73509979,3.133999348,11.27694858,11.27694857520867
6.294114751,-1.470090389,10.73509979,3.143570662,11.28209067,11.282090664414788
6.296620844,-1.470090389,10.73509979,3.16032052,11.28676921,11.286769203019137
6.299126886,-1.455733418,10.74706364,3.19382,11.30570753,11.305707534643377
6.30163298,-1.470090389,10.78056335,3.205784082,11.34278465,11.342784643798804
6.304139021,-1.460519075,10.78295612,3.205784082,11.34382256,11.343822558321726
6.306645115,-1.474876046,10.78056335,3.198605776,11.3413793,11.341379299039794
6.309151157,-1.496411443,10.74467087,3.189034462,11.30739316,11.30739316160854
6.311657251,-1.491625786,10.70399284,3.177070379,11.26473198,11.26473197183806
6.314163292,-1.489233017,10.63699436,3.167499065,11.19805851,11.198058506739933
6.316669386,-1.51555407,10.54367352,3.148356438,11.10756965,11.107569657496585
6.319175428,-1.544267893,10.4288187,3.136392355,10.99918087,10.999180869834026
6.321681521,-1.558624864,10.28734303,3.12921381,10.86511468,10.865114686567432
6.324187563,-1.577767372,10.16052341,3.107678413,10.7416596,10.741659600077261
6.326693657,-1.608874083,10.00498962,3.102892876,10.59793552,10.597935521184699
6.329199699,-1.64476645,9.844670296,3.090928555,10.44876209,10.448762091468287
6.331705792,-1.666301847,9.667302132,3.073879719,10.2801765,10.280176500603813
6.334211834,-1.714158297,9.463912964,3.054737091,10.09135303,10.091353028829799
6.336717928,-1.766800404,9.262915611,3.045166016,9.909400857,9.90940085722055
6.339223969,-1.800299883,9.085547447,3.009273529,9.738787361,9.738787360485809
6.341730063,-1.876870275,8.874979019,2.980559587,9.548383637,9.548383636434304
6.344236105,-1.915155411,8.683254242,2.932703257,9.363090989,9.36309098925734
6.346742199,-1.951047778,8.494221687,2.887239695,9.181205943,9.181205942376172
6.34924824,-2.008774519,8.305188179,2.853740215,9.008615819,9.008615818842163
6.351754334,-2.07098794,8.111070633,2.832204819,8.837411499,8.83741149873125
6.354260376,-2.109273195,7.931608677,2.813062191,8.675988042,8.675988042098774
6.356766469,-2.171486616,7.778468132,2.810669184,8.551010576,8.551010575709395
6.359272511,-2.23130703,7.625327587,2.813062191,8.428384825,8.42838482519779
6.361778605,-2.291127682,7.481459141,2.825026274,8.318790199,8.318790199450246
6.364284646,-2.346162558,7.330711365,2.827419043,8.19988453,8.199884530297991
6.36679074,-2.394019127,7.203891754,2.808276415,8.094059575,8.094059575196878
6.369296782,-2.425125837,7.115357399,2.789133787,8.018030527,8.018030526418189
6.371802876,-2.492124796,7.017251492,2.748456001,7.937664322,7.9376643220942
6.374308917,-2.571387053,6.945167542,2.710170746,7.886216395,7.886216395411715
6.376815011,-2.616850615,6.887740135,2.638386011,7.826234858,7.826234857934956
6.379321053,-2.676671267,6.830312252,2.557030201,7.768921288,7.76892128807023
6.381827146,-2.71974206,6.789634228,2.470589399,7.720099857,7.720099856958677
6.384333188,-2.755634308,6.760920525,2.37248373,7.67673406,7.676734060387115
6.386839282,-2.801098108,6.725028038,2.248056889,7.624035185,7.624035184776344
6.389345324,-2.834597588,6.681957245,2.142772675,7.568022915,7.568022915308203
6.391851417,-2.863311291,6.669992924,2.037488461,7.5391456,7.539145600403689
6.394357459,-2.894418001,6.655636311,1.912762642,7.505585333,7.505585333166585
6.396863553,-2.920739174,6.638886452,1.795514345,7.471907548,7.471907548155834
6.399369594,-2.94227457,6.626922131,1.671087503,7.440807081,7.440807081109484
6.401875688,-2.951845884,6.595815659,1.587338686,7.398501364,7.39850136409189
6.40438173,-2.956631422,6.569494724,1.486840129,7.355992378,7.355992377879841
6.406887824,-2.978166819,6.540780544,1.4054842,7.323023526,7.323023526045178
6.409393865,-2.987738132,6.533602238,1.323829174,7.305276246,7.305276246093571
6.411899959,-2.992523909,6.516852379,1.259222865,7.280810841,7.280810840789192
6.414406001,-3.002095222,6.502495766,1.199402332,7.261789921,7.261789921418148
6.416912094,-3.026023388,6.483353138,1.151545882,7.246843684,7.246843683638319
6.419418136,-3.018844843,6.46421051,1.098903775,7.218520015,7.2185200152393705
6.42192423,-3.030808926,6.425626278,1.05822587,7.182918474,7.182918473878335
6.424430271,-3.042773008,6.413661957,1.02711916,7.172761047,7.1727610475828305
6.426936365,-3.073879719,6.394519329,0.9960124493,7.164541491,7.164541490911663
6.429442407,-3.107678413,6.380162239,1.000798106,7.166989059,7.166989058423409
6.431948501,-3.117249727,6.370591164,1.034297585,7.167387888,7.167387887763106
6.434454542,-3.126821041,6.363412857,1.079761267,7.171883811,7.171883811439409
6.436960636,-3.143570662,6.349055767,1.12283206,7.17309539,7.173095390027023
6.439466678,-3.157927752,6.339484692,1.144367456,7.174339741,7.174339741140367
6.441972771,-3.172284603,6.349055767,1.194616675,7.197291695,7.1972916944566645
6.444478813,-3.179463148,6.34187746,1.254437327,7.204304869,7.20430486823795
6.446984907,-3.191427231,6.308377743,1.304686546,7.18909205,7.189092049936454
6.449490949,-3.200998545,6.34187746,1.340578914,7.229312086,7.229312085351523
6.451997042,-3.227319479,6.332305908,1.376471281,7.239362011,7.2393620105256735
6.454503084,-3.232105255,6.329913139,1.390828133,7.242147998,7.24214799781306
6.457009178,-3.236890793,6.329913139,1.410269856,7.248042731,7.2480427302710675
6.459515219,-3.244069338,6.322734833,1.427019596,7.248265073,7.248265072798546
6.462021313,-3.239283562,6.310770512,1.460519075,7.242368288,7.242368287971209
6.464527355,-3.251247883,6.298806667,1.496411443,7.244641153,7.244641152720884
6.467033449,-3.296711445,6.296413898,1.537089467,7.271573307,7.271573306794334
6.46953949,-3.313461065,6.267699718,1.594517231,7.266744057,7.266744056607754
6.472045584,-3.318246841,6.270092487,1.632802367,7.2794825,7.279482499671328
6.474551626,-3.342175007,6.272485256,1.678265929,7.302792726,7.302792725567054
6.477057719,-3.356531858,6.267699718,1.733300924,7.31810754,7.318107539652958
6.479563761,-3.3852458,6.277271271,1.807478428,7.357377386,7.357377386258296
6.482069855,-3.404388428,6.277271271,1.874477386,7.382930356,7.382930356508021
6.484575896,-3.418745279,6.274878502,1.929512382,7.401684776,7.401684776443662
6.48708199,-3.454637766,6.291627884,1.994417667,7.449617799,7.449617799286183
6.489588032,-3.507279873,6.320342064,2.049452543,7.513187848,7.5131878480128425
6.492094126,-3.543172121,6.329913139,2.099701881,7.551861825,7.5518618244371645
6.494600167,-3.602992773,6.339484692,2.169093609,7.607600815,7.607600815434338
6.497106261,-3.643670797,6.365805626,2.216950178,7.662550896,7.662550896187125
6.499612303,-3.670290947,6.413661957,2.248056889,7.723979227,7.7239792277348585
6.502118396,-3.706183195,6.444768906,2.279163599,7.775951828,7.775951828403484
6.504624438,-3.742075443,6.478567123,2.315055847,7.831631003,7.8316310027381295
6.507130532,-3.806681633,6.516852379,2.319841623,7.895685856,7.895685856244586
6.509636574,-3.847359657,6.574280262,2.303091764,7.957862085,7.957862085198423
6.512142667,-3.878466368,6.636493683,2.291127682,8.020898692,8.02089869200657
6.514648709,-3.909573078,6.708278179,2.26241374,8.087290876,8.087290875813157
6.517154803,-3.93828702,6.79920578,2.209771633,8.162254257,8.16225425729298
6.519660844,-3.959822416,6.870990276,2.178664923,8.224188823,8.224188822361342
6.522166938,-3.974179268,6.945167542,2.147558212,8.28501414,8.285014140879904
6.52467298,-3.986143351,7.022037029,2.109273195,8.34550036,8.345500360224912
6.527179074,-3.990929127,7.11296463,2.063809633,8.413149905,8.413149905096878
6.529685115,-3.998107433,7.196712971,1.98963201,8.469721139,8.469721138738048
6.532191209,-3.990929127,7.266105175,1.922333837,8.509945187,8.509945187354258
6.534697251,-3.978965044,7.352246761,1.888834357,8.570612025,8.570612025065218
6.537203344,-3.983750582,7.435995579,1.838585138,8.633926931,8.633926931597658
6.539709386,-3.967000723,7.514958382,1.778764486,8.681917836,8.681917836292245
6.54221548,-3.947858334,7.599006653,1.735693693,8.737455014,8.737455014681993
6.544721521,-3.964607954,7.68275547,1.704586983,8.811836621,8.811836620327684
6.547227615,-3.971786499,7.754539967,1.704586983,8.877702116,8.8777021168798
6.549733657,-3.96939373,7.831110477,1.699801445,8.942689911,8.942689910712916
6.552239751,-3.950251102,7.876574039,1.704586983,8.974994103,8.974994102689653
6.554745792,-3.95503664,7.945965767,1.72372961,9.04167742,9.041677419730762
6.557251886,-3.952643871,7.986643791,1.754836321,9.082363301,9.082363300858072
6.559757928,-3.950251102,8.01775074,1.826620936,9.122793144,9.122793143629657
6.562264021,-3.947858334,8.046463966,1.910369754,9.164097358,9.164097357539788
6.564770063,-3.945465326,8.072785378,2.025524378,9.210825663,9.210825663521767
6.567276157,-3.95503664,8.106285095,2.142772675,9.270687548,9.270687547420001
6.569782199,-3.959822416,8.164011955,2.264806747,9.352039049,9.35203904872599
6.572288292,-3.971786499,8.195118904,2.379662037,9.412643266,9.41264326609034
6.574794334,-3.974179268,8.25254631,2.504088879,9.495740233,9.495740232695242
6.577300428,-3.964607954,8.336295128,2.607279301,9.592175876,9.592175876382775
6.579806469,-3.943072557,8.429615021,2.743670225,9.702265555,9.702265554786
6.582312563,-3.92392993,8.513363838,2.851347208,9.798202429,9.798202428725654
6.584818605,-3.919144392,8.597112656,2.932703257,9.892966551,9.892966550985545
6.587324699,-3.916751623,8.71705246,3.014059305,10.02060379,10.020603792223415
6.58983074,-3.926322937,8.848658562,3.085843801,10.16057095,10.16057095426425
6.592336834,-3.92392993,8.977870941,3.186641455,10.30311004,10.303110039765981
6.594842876,-3.93828702,9.085547447,3.270390272,10.42845768,10.428457680538427
6.597348969,-3.943072557,9.214759827,3.349353552,10.56777124,10.567771244465629
6.599855011,-3.967000723,9.327521324,3.394817114,10.68945892,10.68945892098681
6.602361105,-3.986143351,9.466305733,3.433102369,10.82988804,10.829888038266306
6.604867146,-3.990929127,9.593125343,3.473780155,10.95548802,10.955488017816354
6.60737324,-4.005286217,9.719944954,3.512065411,11.08396369,11.083963688140757
6.609879282,-4.014857292,9.861420631,3.531208038,11.21767026,11.217670263663209
6.612385376,-4.055535316,10.00738239,3.550350666,11.36662038,11.36662037945193
6.614891417,-4.081856251,10.13659477,3.564707518,11.49431354,11.494313536436392
6.617397511,-4.136891365,10.26819992,3.581457376,11.63514661,11.635146612699145
6.619903553,-4.167997837,10.41446114,3.626920938,11.78930711,11.78930711688815
6.622409699,-4.191926003,10.55803108,3.66789794,11.93724169,11.937241691409694
6.62491574,-4.218546391,10.73031425,3.715754509,12.11373639,12.113736381807472
6.627421782,-4.252045631,10.89781189,3.789932013,12.29657597,12.296575974680668
6.629927876,-4.256831646,11.07757282,3.84257412,12.47391723,12.473917232068025
6.632433917,-4.290330887,11.27139091,3.871287823,12.66641471,12.666414708767627
6.634939959,-4.287938118,11.45324516,3.878466368,12.82987683,12.829876825853315
6.637446105,-4.28315258,11.61625671,3.876073599,12.97330962,12.973309620950449
6.639952146,-4.295116425,11.79571819,3.852145433,13.13110876,13.131108755896603
6.642458188,-4.271188259,11.95125198,3.811467409,13.25151904,13.251519039081616
6.644964282,-4.26879549,12.07597733,3.739682674,13.34305324,13.343053245503222
6.647470376,-4.259224415,12.19322586,3.687040567,13.43167963,13.43167962814065
6.649976417,-4.254438877,12.30568886,3.614956856,13.51288798,13.512887979554872
6.652482459,-4.240081787,12.4109726,3.540779352,13.58483172,13.584831719898093
6.654988553,-4.218546391,12.49950695,3.468994617,13.64066462,13.64066462086406
6.657494594,-4.206283092,12.56650639,3.36849618,13.67320982,13.673209821202574
6.660000688,-4.213760853,12.6625185,3.301496983,13.7475466,13.74754660358988
6.66250673,-4.196712017,12.76780224,3.244069338,13.82581468,13.825814683523463
6.665012824,-4.199104786,12.89701462,3.186641455,13.93270077,13.932700774617473
6.667518865,-4.184747696,13.05733395,3.165106058,14.07209933,14.072099328791998
6.670024959,-4.203890324,13.23709488,3.145963669,14.24045161,14.240451612396672
6.672531001,-4.240081787,13.44766331,3.189034462,14.45641321,14.456413208655627
6.675037042,-4.26879549,13.67258835,3.244069338,14.68626137,14.686261368835563
6.677543188,-4.307080746,13.90020561,3.296711445,14.92095731,14.920957305227885
6.68004923,-4.34775877,14.10838127,3.366103172,15.14199719,15.141997191465437
6.682555271,-4.39800787,14.28544998,3.425923824,15.33471579,15.334715791416373
6.685061365,-4.455435753,14.4508543,3.4809587,15.5175762,15.517576203133169
6.687567459,-4.517649174,14.59442329,3.526422262,15.67934945,15.679349450693625
6.690073501,-4.565505505,14.68535042,3.557528973,15.78478286,15.78478285780688
6.692579542,-4.601397991,14.73081398,3.571886063,15.84071065,15.840710654260304
6.695085636,-4.649254322,14.73799324,3.550350666,15.85651287,15.856512868360685
6.697591678,-4.699503899,14.67817211,3.533600807,15.81203365,15.812033646900993
6.700097771,-4.728217602,14.60878086,3.488137245,15.74609861,15.746098607189056
6.702603813,-4.721039295,14.51546001,3.428316593,15.64417291,15.64417290842448
6.705109907,-4.697110653,14.3814621,3.3852458,15.50319934,15.503199339061604
6.707615949,-4.639683247,14.23998642,3.35413909,15.34777257,15.347772571593016
6.710122042,-4.567898273,14.12273788,3.306282759,15.206871,15.206870997747169
6.712628084,-4.474578381,14.00070477,3.282354355,15.06039295,15.060392951586648
6.715134178,-4.34775877,13.83320713,3.256033421,14.86143935,14.86143934692275
6.717640219,-4.235296249,13.68215942,3.19382,14.67445764,14.674457635752274
6.720146313,-4.110570431,13.50509071,3.148356438,14.46362378,14.463623771871138
6.722652355,-3.971786499,13.31366539,3.0981071,14.23471256,14.234712561677982
6.725158449,-3.823431492,13.1458683,3.016452074,14.01896804,14.018968037972735
6.72766449,-3.706183195,13.00229931,2.927917719,13.83359257,13.833592569935007
6.730170584,-3.59102869,12.82762337,2.834597588,13.61904372,13.6190437204992
6.732676626,-3.4809587,12.65773296,2.734098911,13.40934652,13.409346516997292
6.735182719,-3.387638569,12.49472141,2.667099953,13.21769951,13.217699510390656
6.737688761,-3.291925669,12.32483101,2.602493763,13.01964699,13.019646992976906
6.740194855,-3.205784082,12.15733337,2.547458887,12.82838077,12.828380764175789
6.742700896,-3.138785124,11.99671555,2.520838737,12.65416073,12.654160737884407
6.74520699,-3.07148695,11.84836006,2.504088879,12.4935235,12.493523494569295
6.747713032,-3.023630619,11.72632694,2.50169611,12.36558001,12.365580012709199
6.750219126,-2.968595505,11.59232807,2.523231506,12.22952684,12.229526834170125
6.752725167,-2.954238653,11.47238827,2.535494804,12.11494748,12.114947483898716
6.755231261,-2.932703257,11.35274696,2.568994284,12.00355546,12.003555455057151
6.757737303,-2.930310488,11.21874905,2.705385208,11.90655949,11.906559491583785
6.760243396,-2.915953398,11.16371441,2.865704298,11.88879997,11.888799971861125
6.762749438,-2.939881802,11.08235836,2.841775894,11.81258913,11.81258913451713
6.765255532,-3.037987471,10.97228813,2.746062994,11.71158984,11.711589842916636
6.767761574,-3.117249727,10.93609715,2.755634308,11.70081138,11.700811389563817
6.770267667,-3.117249727,11.03210926,2.808276415,11.8030122,11.803012200625083
6.772773709,-3.061915636,11.17567825,2.789133787,11.91848896,11.91848895587395
6.775279803,-2.97577405,11.25942707,2.738884687,11.96375436,11.963754363492475
6.777785844,-2.961417198,11.249856,2.717349291,11.94626464,11.946264646769063
6.780291938,-3.00688076,11.15892887,2.784348249,11.88762468,11.887624682933383
6.78279798,-3.102892876,11.11825085,2.858525753,11.89178774,11.891787739613482
6.785304074,-3.145963669,11.18524933,2.767598391,11.94430788,11.944307884293638
6.787810115,-3.198605776,11.28096199,2.571387053,12.0042998,12.004299800755616
6.790316209,-3.248854876,11.40060329,2.348555326,12.08488832,12.08488831146365
6.792822251,-3.282354355,11.52532959,2.159522533,12.17664198,12.17664197718122
6.795328344,-3.330210924,11.62343502,2.07098794,12.26717317,12.267173167038802
6.797834386,-3.406781197,11.72154045,2.097309113,12.3854501,12.385450099237081
6.80034048,-3.497708559,11.7717905,2.14995122,12.46720927,12.467209270240538
6.802846521,-3.569493294,11.79571819,2.185843468,12.51631582,12.516315818179331
6.805352615,-3.648755312,11.77896881,2.164308071,12.51965459,12.519654587088128
6.807858657,-3.746861219,11.73589802,2.11645174,12.49998557,12.49998557191308
6.810364751,-3.823431492,11.70479107,2.008774519,12.47621487,12.476214868082097
6.812870792,-3.880859137,11.64975643,1.8840487,12.42286328,12.422863277986055
6.815376938,-3.935894251,11.59950733,1.747657895,12.37312176,12.373121755310354
6.81788298,-3.964607954,11.58514977,1.635195136,12.35344788,12.3534478812617
6.820389021,-4.01964283,11.58036423,1.546660781,12.35534393,12.355343934982846
6.822895115,-4.050749779,11.57318592,1.482054472,12.35085793,12.350857928457035
6.825401209,-4.081856251,11.58514977,1.43659091,12.36693329,12.366933293660697
6.827907251,-4.077070713,11.59232807,1.39561379,12.36738912,12.367389115417629
