Time (s),Acceleration x (m/s^2),Acceleration y (m/s^2),Acceleration z (m/s^2),Absolute acceleration (m/s^2),magnitude
4.356509443,-7.467102051,9.064012527,2.484946251,12.00370335,12.003703345218936
4.359015589,-7.474280834,9.226723671,2.482553482,12.13096762,12.130967623297071
4.361521682,-7.495816231,9.418449402,2.434697151,12.28096903,12.28096903033489
4.364027776,-7.491030216,9.617053032,2.336591244,12.41220776,12.412207755224808
4.36653387,-7.502994537,9.774979591,2.24566412,12.5255004,12.52550040383911
4.369040016,-7.498209,9.99302578,2.123630047,12.67254935,12.672549349832764
4.371546109,-7.500601768,10.17248726,1.965703845,12.7907199,12.79071989933463
4.374052203,-7.486244678,10.38066292,1.785943031,12.92252354,12.922523536350155
4.376558297,-7.479066372,10.55085278,1.592124343,13.0304178,13.030417802418622
4.379064443,-7.459923744,10.74945641,1.39561379,13.15860985,13.158609851637948
4.381570536,-7.46949482,10.90977573,1.180259824,13.27439538,13.274395375950363
4.38407663,-7.450352192,11.06560802,0.9912267923,13.37676939,13.376769385427146
4.386582724,-7.424031258,11.18046379,0.7995018363,13.44463513,13.44463513322356
4.38908887,-7.400103092,11.30967617,0.5937191248,13.52859206,13.528592064278053
4.391594964,-7.342675209,11.40538883,0.4190430641,13.57104899,13.571048989592597
4.394101057,-7.299604416,11.48435211,0.2727817893,13.61062004,13.610620041758636
4.396607151,-7.266105175,11.55165005,0.1339980662,13.64752207,13.647522074485613
4.399113297,-7.208677292,11.62582779,0.0382851623,13.67941394,13.679413944193117
4.401619391,-7.146463871,11.67846966,-0.004785645287,13.69155295,13.691552956529424
4.404125484,-7.067500591,11.73350525,-0.03110669367,13.69765227,13.69765226898223
4.406631578,-6.993024349,11.81007481,-0.04067798331,13.725229,13.725229005806408
4.409137724,-6.897311211,11.85075283,-0.0382851623,13.71184562,13.711845620950944
4.411643818,-6.794419765,11.89861012,-0.02871387079,13.70189356,13.70189356319647
4.414149911,-6.669992924,11.93928814,-0.03349951655,13.6761299,13.676129902635608
4.416656005,-6.531209469,11.98235893,-0.04546362907,13.64681976,13.646819761280435
4.419162151,-6.372983932,11.98953724,-0.05503492057,13.57817942,13.578179416599236
4.421668245,-6.207879066,11.97039413,-0.1124626622,13.48483393,13.48483392467288
4.424174339,-5.997310638,11.91775227,-0.1674975902,13.3427362,13.342736207408167
4.426680432,-5.786443233,11.84836006,-0.2560320199,13.18833249,13.188332487291513
4.429186578,-5.578267574,11.73350525,-0.3592225015,12.99697101,12.996971008065739
4.431692672,-5.343770981,11.61147118,-0.4501497746,12.79002682,12.790026820961742
4.434198766,-5.09461832,11.48435211,-0.5410770178,12.57530292,12.575302920889516
4.436704911,-4.855336189,11.34317589,-0.6128616929,12.3538467,12.353846697863567
4.439211005,-4.615755081,11.20917797,-0.6678966284,12.14071463,12.140714626295223
4.441717099,-4.36211586,11.05603695,-0.7061817646,11.90641426,11.906414258729722
4.444223193,-4.096213341,10.88584709,-0.7277171612,11.65376347,11.653763463729339
4.446729339,-3.844966888,10.70160007,-0.71336025,11.39372184,11.393721835920012
4.449235432,-3.59102869,10.50778198,-0.6750751138,11.12495823,11.124958229174972
4.451741526,-3.315854073,10.30887794,-0.6200401783,10.84676461,10.846764606921072
4.45424762,-3.052344322,10.11266708,-0.5315057039,10.57664123,10.576641226979367
4.456753766,-2.791526794,9.928419113,-0.4381856322,10.32269997,10.3226999652838
4.459259859,-2.537887573,9.796515465,-0.3496512175,10.12594907,10.12594906974508
4.461765953,-2.300698996,9.707980156,-0.2416750938,9.979804679,9.979804678972853
4.464272047,-2.082952023,9.640981674,-0.1746760458,9.864974835,9.864974834711946
4.466778193,-1.83619225,9.614660263,-0.1459621787,9.789514743,9.789514743309912
4.469284286,-1.594517231,9.62183857,-0.2057827413,9.755234964,9.755234964044305
4.47179038,-1.364507079,9.688838005,-0.2874378264,9.788671103,9.788671102852472
4.474296474,-1.151545882,9.789336205,-0.3951148391,9.86474921,9.864749210646561
4.47680262,-0.9696913958,9.940383911,-0.5195416212,10.0010728,10.001072802320525
4.479308714,-0.7827520967,10.1270237,-0.6583253145,10.17854125,10.178541255256643
4.481814807,-0.5961119533,10.36869907,-0.7971090674,10.41636466,10.416364660015379
4.484320901,-0.4405784607,10.63699436,-0.9409775138,10.68761887,10.687618868400099
4.486827047,-0.318544507,10.91456127,-1.091725349,10.97364947,10.973649463928263
4.489333141,-0.2297109663,11.21396351,-1.220937729,11.28257212,11.282572121185206
4.491839234,-0.1555334777,11.51336479,-1.338186026,11.59191534,11.59191534175776
4.494345328,-0.1004985496,11.80528927,-1.434198022,11.89251355,11.892513555727298
4.496851474,-0.05264209956,12.11665535,-1.508375525,12.21029503,12.21029503270698
4.499357568,-0.03349951655,12.40857983,-1.577767372,12.50853011,12.508530109299002
4.501863661,-0.05264209956,12.70080376,-1.649552107,12.80758406,12.807584061577904
4.504369755,-0.09810572863,12.97119236,-1.718943954,13.08496176,13.08496176116329
4.506875901,-0.2129612118,13.18923855,-1.738086581,13.30497317,13.30497316681209
4.509381995,-0.4070789516,13.37348557,-1.735693693,13.4917924,13.491792399816784
4.511888089,-0.6200401783,13.60558987,-1.821835399,13.74101924,13.741019240012816
4.514394182,-0.8931210637,13.79252911,-1.886441588,13.94955864,13.949558643539874
4.516900328,-1.177866936,13.96241951,-1.980060697,14.15122502,14.151225016088
4.519406422,-1.472483277,14.13709545,-2.047059774,14.36022731,14.360227313026222
4.521912516,-1.790728688,14.29262829,-2.094916344,14.55591313,14.555913133791808
4.524418609,-2.118844509,14.41256905,-2.128415823,14.72215346,14.722153463061515
4.526924755,-2.444268227,14.50349617,-2.137987137,14.86259861,14.862598605785728
4.529430849,-2.789133787,14.53938866,-2.104487419,14.95332595,14.953325957292941
4.531936943,-3.105285645,14.53221035,-2.039881229,14.99963506,14.99963506296459
4.534443036,-3.430709362,14.5011034,-1.90079844,15.0221437,15.022143697006511
4.536949182,-3.746861219,14.42453289,-1.721336842,15.00230378,15.00230377684589
4.539455276,-4.014857292,14.3383913,-1.513161182,14.96656945,14.966569443588362
4.54196137,-4.252045631,14.25912952,-1.316650629,14.93774534,14.937745331712135
4.544467464,-4.453042984,14.1993084,-1.18743825,14.92849491,14.928494915872305
4.546973609,-4.596612453,14.15863037,-1.02711916,14.92148229,14.921482291186761
4.549479703,-4.675575256,14.13230991,-0.8883354068,14.91215368,14.912153672819302
4.551985797,-4.730610371,14.0988102,-0.7923234105,14.89237724,14.892377242222382
4.554491943,-4.764110088,14.04616833,-0.684646368,14.8479066,14.847906597715854
4.556998036,-4.793122768,14.02702522,-0.5865406394,14.8349416,14.834941601277162
4.55950413,-4.83858633,13.98156166,-0.5315057039,14.80467772,14.804677721535281
4.562010224,-4.900799751,13.96959782,-0.4525425732,14.81122197,14.811221969591466
4.564516318,-4.958227634,13.94566917,-0.323330164,14.80439976,14.80439976036185
4.567022464,-5.09461832,13.92891979,-0.1052841991,14.83175739,14.83175738425199
4.569528557,-5.242973328,13.92652702,0.2153540403,14.88231506,14.882315059142613
4.572034651,-5.417948723,13.90499115,0.6056832075,14.9355214,14.935521396807115
4.574540797,-5.590231895,13.84038544,0.9744769931,14.95849481,14.958494816582332
4.577046891,-5.738586903,13.70608807,1.309472203,14.91653268,14.916532682775482
4.579552984,-5.851049423,13.46680546,1.599302888,14.76981375,14.769813755611123
4.582059078,-5.918347836,13.29452229,1.673480392,14.64826613,14.64826613117065
4.584565224,-5.879763603,13.12194061,1.584945917,14.46613283,14.466132826686808
4.587071318,-5.817550182,12.98794174,1.41984117,14.30197433,14.301974329083011
4.589577411,-5.774479389,12.89940739,1.261615753,14.18911546,14.189115459935838
4.592083505,-5.745765209,12.86830139,1.15393877,14.13996369,14.139963691104013
4.594589651,-5.755336761,12.85872936,1.094118118,14.13038982,14.130389819193944
4.597095745,-5.829514027,12.83719444,1.115653515,14.14289496,14.142894952833684
4.599601839,-5.935097694,12.78694534,1.168295622,14.14553889,14.145538887785655
4.602107932,-6.066702843,12.68883896,1.144367456,14.1110274,14.111027404566617
4.604614078,-6.229414463,12.58804131,1.065404296,14.08543485,14.08543484909271
4.607120172,-6.408876419,12.43250847,0.9720842242,14.0209098,14.02090979749797
4.609626266,-6.602993965,12.28654575,0.8811569214,13.97623602,13.976236020073523
4.612132359,-6.818347931,12.10469151,0.7348956466,13.9123505,13.912350508516873
4.614638505,-7.03400135,11.91296673,0.5506483316,13.84554675,13.845546752908769
4.617144599,-7.249355316,11.79332542,0.3424727321,13.84748947,13.84748946675417
4.619650693,-7.474280834,11.72632694,0.1866401732,13.90706483,13.907064824883848
4.622156786,-7.73300457,11.71675491,0.1316052526,14.03919604,14.039196032649516
4.624662932,-7.967501163,11.71675491,0.08374879509,14.16934841,14.169348406475665
4.627169026,-8.077570915,11.70957661,-0.08614161611,14.2256373,14.225637302080322
4.62967512,-8.161619186,11.71436214,-0.4166502357,14.28327363,14.28327362698263
4.632181214,-8.250153542,11.71914768,-0.8114659786,14.35485747,14.354857465215382
4.634687359,-8.35304451,11.73589802,-1.098903775,14.44687663,14.446876632289428
4.637193453,-8.482256889,11.72871971,-1.268794179,14.53001675,14.530016745874546
4.639699547,-8.621041298,11.73350525,-1.299900889,14.61804504,14.618045041482876
4.642205693,-8.781659126,11.69282722,-1.21854496,14.6739428,14.67394279740702
4.644711786,-8.970691681,11.60668564,-1.084546804,14.70934066,14.709340656583198
4.64721788,-9.17886734,11.4699955,-0.97926265,14.72315719,14.723157193789106
4.649723974,-9.389735222,11.26899815,-0.9912267923,14.70169981,14.701699813210178
4.65223012,-9.585947037,11.02253723,-1.05822587,14.64604211,14.646042112968349
4.654736214,-9.791728973,10.73988533,-1.168295622,14.58039807,14.580398068729851
4.657242307,-9.9643116,10.44317532,-1.323829174,14.49482459,14.494824597354919
4.659748401,-10.11745262,10.13659477,-1.477268934,14.39776804,14.397768040654693
4.662254547,-10.25384331,9.8638134,-1.592124343,14.31680751,14.31680751213847
4.664760641,-10.40489006,9.583553314,-1.635195136,14.24008759,14.24008758455387
4.667266734,-10.5221386,9.286844254,-1.642373681,14.13004841,14.130048415476299
4.66977288,-10.62024403,9.008976936,-1.565803289,14.01438506,14.014385060714359
4.672278974,-10.69681454,8.709874153,-1.37886405,13.86308101,13.863081011544125
4.674785068,-10.7614212,8.427222252,-1.096511006,13.71235201,13.712352005206565
4.677291161,-10.79970551,8.130212784,-0.7492526174,13.53866236,13.538662360090163
4.679797255,-10.84995556,7.831110477,-0.3687937856,13.38595666,13.385956664103288
4.682303401,-10.86670494,7.534101009,-0.002392822644,13.22300874,13.223008734491383
4.684809495,-10.85713387,7.215855598,0.3376871049,13.04070398,13.0407039864842
4.687315589,-10.72792149,6.911668301,0.5985047817,12.77566695,12.77566695606808
4.689821734,-10.51256752,6.610172749,0.7588238716,12.44123279,12.441232788686625
4.692327828,-10.26341438,6.380162239,0.8691928387,12.11609018,12.1160901747387
4.694833922,-9.983454704,6.148058891,1.007976532,11.76792304,11.767923038628636
4.697340016,-9.724730492,5.985346794,1.163509965,11.47817559,11.478175587833414
4.699846109,-9.428020477,5.831906796,1.345364571,11.16730553,11.167305530917668
4.702352255,-9.131011009,5.695516109,1.551446438,10.87295966,10.872959663511153
4.704858349,-8.834300995,5.563910961,1.70937264,10.57941086,10.57941085668642
4.707364443,-8.544470787,5.422734261,1.80508554,10.2797063,10.279706304269432
4.709870536,-8.226224899,5.290830135,1.817049742,9.948131954,9.948131953852137
4.712376682,-7.92443037,5.161617756,1.855334878,9.637487331,9.637487331122987
4.714882776,-7.656434059,5.049154758,1.955833435,9.377645264,9.377645263898243
4.71738887,-7.421638489,4.955834866,2.140379906,9.177267742,9.177267742769414
4.719895016,-7.225427151,4.888835907,2.403590441,9.049019894,9.049019894333698
4.722401109,-7.065107822,4.788337231,2.681456804,8.946179775,8.94617977496452
4.724907203,-6.930810928,4.699503899,2.966202736,8.883683678,8.883683677813742
4.727413297,-6.794419765,4.620540619,3.203391314,8.819027807,8.819027807273441
4.729919443,-6.672386169,4.543970108,3.346960783,8.739024432,8.739024431456865
4.732425536,-6.574280262,4.481756687,3.421138287,8.660917454,8.660917453917298
4.73493163,-6.502495766,4.402793884,3.411566973,8.561882642,8.56188264245079
4.737437724,-6.432804585,4.314259052,3.346960783,8.437769402,8.437769401891765
4.73994387,-6.40648365,4.244867325,3.19382,8.322404554,8.32240455379153
4.742449964,-6.353841305,4.16081953,2.966202736,8.153654221,8.153654221354216
4.744956057,-6.346662998,4.079463482,2.71974206,8.019922093,8.019922093392614
4.747462151,-6.337091446,4.010071754,2.451446772,7.889803213,7.889803213207806
4.749968297,-6.344270229,3.940679789,2.159522533,7.774462008,7.774462007659664
4.752474391,-6.351448536,3.856930971,1.8840487,7.665928158,7.665928158056743
4.754980484,-6.365805626,3.754039526,1.642373681,7.570580251,7.570580251131683
4.75748663,-6.380162239,3.670290947,1.415055513,7.495324405,7.495324405018327
4.759992724,-6.387341022,3.571886063,1.213759303,7.418201064,7.418201063869643
4.762498818,-6.413661957,3.471387386,1.003190875,7.36152036,7.3615203602267005
4.765004911,-6.408876419,3.332603693,0.794716239,7.267153379,7.267153378671859
4.767511057,-6.413661957,3.177070379,0.5961119533,7.182213124,7.1822131235890945
4.770017151,-6.404090881,3.009273529,0.4190430641,7.08827936,7.088279359196968
4.772523245,-6.384948254,2.820240498,0.2560320199,6.984760058,6.984760058014235
4.775029339,-6.365805626,2.619243383,0.1411765367,6.885045242,6.885045241820649
4.777535484,-6.349055767,2.39162612,0.05503492057,6.78479281,6.784792809867104
4.780041578,-6.317949295,2.128415823,0.007178467698,6.666834987,6.66683498672243
4.782547672,-6.27966404,1.845763564,0.0,6.545305462,6.54530546189092
4.785053766,-6.212665081,1.556231976,0.02632104978,6.404666905,6.404666905426318
4.787559911,-6.143272877,1.206580877,0.08374879509,6.261202194,6.2612021940442855
4.790066005,-6.061916828,0.8931210637,0.1603191197,6.129453735,6.129453734563594
4.792572099,-5.963811398,0.5530411601,0.2850449979,5.99617808,5.99617807995287
4.795078193,-5.831906796,0.2321037948,0.4142574072,5.851206563,5.85120656345438
4.797584339,-5.688337803,-0.1004985496,0.579362154,5.718649091,5.718649090912826
4.800090432,-5.504090309,-0.4142574072,0.766002357,5.572555872,5.572555871409217
4.802596526,-5.321936607,-0.7253243923,0.9744769931,5.458819482,5.458819481634582
4.80510262,-5.135296345,-1.039083242,1.192223907,5.373300697,5.373300696889943
4.807608766,-4.941477776,-1.328614831,1.400399446,5.305142655,5.305142654840883
4.810114859,-4.730610371,-1.623231053,1.611266971,5.254496625,5.254496625317382
4.812620953,-4.496113777,-1.896012783,1.829013824,5.211064684,5.211064683671823
4.815127047,-4.264009953,-2.147558212,2.02073884,5.184319879,5.18431987947274
4.817633193,-4.036392689,-2.39162612,2.221735716,5.19118975,5.191189750859522
4.820139286,-3.840181351,-2.600100994,2.396411896,5.220182752,5.220182751863989
4.82264538,-3.66789794,-2.774776936,2.595315218,5.28095857,5.280958570524501
4.825151526,-3.526422262,-2.88006115,2.796312332,5.343198373,5.343198373237119
4.82765762,-3.39960289,-2.954238653,2.982952595,5.402113662,5.402113661576628
4.830163714,-3.265604734,-3.076272726,3.133999348,5.472620951,5.472620951310177
4.832669807,-3.078665495,-3.222533941,3.205784082,5.489987051,5.489987050203777
4.835175953,-2.896811008,-3.349353552,3.256033421,5.496493143,5.496493142998903
4.837682047,-2.71974206,-3.425923824,3.306282759,5.483197662,5.483197662244584
4.840188141,-2.549851656,-3.502494097,3.3852458,5.498099444,5.4980994437663115
4.842694234,-2.379662037,-3.535993576,3.492922783,5.510585409,5.510585408815721
4.84520038,-2.207378864,-3.55992198,3.595814228,5.520457039,5.520457038616303
4.847706474,-2.078166485,-3.5766716,3.708575964,5.555617999,5.555617999321258
4.850212568,-1.934298038,-3.581457376,3.821038723,5.582891971,5.582891970885782
4.852718661,-1.795514345,-3.564707518,3.897608995,5.578742451,5.578742450578931
4.855224807,-1.702194214,-3.555136204,3.931108475,5.566872767,5.566872767845824
4.857730901,-1.630409479,-3.521636724,3.900001764,5.501833699,5.5018336983447265
4.860236995,-1.551446438,-3.504886866,3.801896095,5.398669457,5.398669457432862
4.862743141,-1.604088426,-3.36849618,3.71336174,5.263926443,5.263926443748771
4.865249234,-1.807478428,-3.19382,3.651148319,5.176712133,5.1767121329490475
4.867755328,-2.114058733,-2.982952595,3.614956856,5.141513744,5.141513744154751
4.870261422,-2.444268227,-2.791526794,3.564707518,5.145309388,5.145309387784894
4.872767568,-2.822633505,-2.621636391,3.500101328,5.204896404,5.204896404005699
4.875273661,-3.210569859,-2.441875458,3.418745279,5.287564076,5.28756407569561
4.877779755,-3.586242914,-2.21216464,3.325425386,5.367798863,5.367798862712237
4.880285849,-3.926322937,-1.955833435,3.248854876,5.458603689,5.4586036892583785
4.882791995,-4.223331928,-1.718943954,3.12921381,5.530215182,5.530215182047808
4.885298089,-4.486542225,-1.505982757,2.959024191,5.581475554,5.581475554368439
4.887804182,-4.723432064,-1.292722464,2.769991398,5.626259341,5.6262593414405915
4.890310276,-4.910371304,-1.077368379,2.57617259,5.64881706,5.648817060295284
4.892816422,-5.06111908,-0.8548358679,2.379662037,5.657602152,5.657602152266222
4.895322516,-5.199902534,-0.6463612318,2.18105793,5.675718713,5.6757187121182735
4.897828609,-5.336592674,-0.4405784607,1.963011861,5.70322245,5.703222450040848
4.900334755,-5.461019516,-0.2105683982,1.790728688,5.750980998,5.75098099792371
4.902840849,-5.58066082,-0.0933200866,1.766800404,5.854405819,5.854405819040961
4.905346943,-5.712265968,0.06939185411,1.74047935,5.971939893,5.971939893063578
4.907853036,-5.834300041,0.3137588799,1.721336842,6.091018152,6.0910181518983535
4.910359182,-5.966204166,0.5841478109,1.745265007,6.243618403,6.2436184028200925
4.912865276,-6.109773636,0.8739784956,1.797907114,6.428502336,6.428502336042486
4.91537137,-6.25094986,1.175474167,1.886441588,6.634363235,6.634363235040295
4.917877464,-6.40648365,1.470090389,1.946262121,6.855080945,6.855080944320564
4.920383609,-6.581458569,1.790728688,1.970489502,7.099657386,7.099657386591407
4.922889703,-6.78484869,2.169093609,1.992024899,7.396438469,7.396438469225261
4.925395797,-7.002595425,2.597707987,2.07098794,7.750704517,7.750704517628057
4.927901891,-7.234998226,3.045166016,2.178664923,8.14646035,8.14646035047953
4.930408036,-7.464709282,3.533600807,2.243271112,8.558065471,8.558065471234825
4.93291413,-7.658827305,4.038785458,2.243271112,8.944366324,8.944366324424529
4.935420224,-7.859824181,4.558327198,2.068595171,9.318490703,9.318490702991733
4.937926318,-8.056035995,5.085047245,1.90079844,9.714445746,9.71444574569873
4.940432464,-8.25254631,5.638088226,1.934298038,10.18008194,10.180081941844334
4.942938557,-8.441578865,6.181558132,1.980060697,10.64859404,10.648594040393979
4.945444651,-8.606683731,6.684350014,1.8840487,11.05916721,11.059167213632932
4.947950797,-8.77448082,7.139285564,1.620838284,11.42751192,11.427511923763928
4.950456891,-8.961120605,7.536494255,1.208973646,11.77123806,11.771238058493513
4.952962984,-9.193224907,7.962715626,0.9481559992,12.1991485,12.199148500204785
4.955469078,-9.454340935,8.400900841,0.902692318,12.67969049,12.679690488198338
4.957975224,-9.765408516,8.824729919,0.8234301209,13.18776322,13.187763221701566
4.960481318,-10.11745262,9.200403214,0.8353942037,13.7006624,13.700662403464365
4.962987411,-10.53410244,9.538089752,0.9146564603,14.2400515,14.24005150180258
4.965493505,-11.01057339,9.810872078,0.926620543,14.77648682,14.77648682665016
4.967999651,-11.51575851,10.01216793,0.902692318,15.28630283,15.286302827699513
4.970505745,-12.02782249,10.14855862,0.7396813035,15.75464644,15.754646436695225
4.973011839,-12.5928278,10.21316528,0.6583253145,16.22718242,16.227182418915547
4.975517932,-13.25145149,10.26102161,0.8452646136,16.78106086,16.781060852631295
