Time (s),Acceleration x (m/s^2),Acceleration y (m/s^2),Acceleration z (m/s^2),Absolute acceleration (m/s^2),magnitude
9.773821665,8.989834785,4.759324074,-7.522137165,12.65112021,
9.776327707,9.516554832,4.551148891,-7.414460182,12.8938742,
9.778833748,10.08634567,4.278367043,-7.120142937,13.06656914,
9.78133979,10.70877838,4.014857292,-6.631708145,13.22030886,
9.783845884,11.37906837,3.806681633,-6.116951942,13.46815218,
9.786351925,12.04696465,3.64127779,-5.595017433,13.77288936,
9.788857967,12.67687511,3.49531579,-5.152046204,14.12317157,
9.791364009,13.17697525,3.344567776,-4.768895626,14.40698358,
9.79387005,13.56251907,3.16032052,-4.436293125,14.61541125,
9.796376092,13.78774357,2.863311291,-4.16081953,14.68376122,
9.798882134,13.86192036,2.511267424,-3.921537161,14.62319232,
9.801388175,13.79970741,2.202593327,-3.799503326,14.48169768,
9.803894217,13.60558987,1.970489502,-3.799503326,14.26292852,
9.806400259,13.31605816,1.800299883,-3.806681633,13.9660055,
9.8089063,12.96879959,1.639980793,-3.847359657,13.62649904,
9.811412342,12.55693531,1.438983679,-3.892823458,13.22502828,
9.813918384,12.08794212,1.180259824,-3.87368083,12.7482062,
9.816424425,11.60429287,1.007976532,-3.782753468,12.24683034,
9.818930467,11.19242764,0.97926265,-3.636492252,11.80904177,
9.821436509,10.82602692,1.132403374,-3.442673683,11.4165318,
9.82394255,10.54845905,1.412662625,-3.203391314,11.1142845,
9.826448592,10.30887794,1.699801445,-2.954238653,10.85770765,
9.828954686,10.12223816,1.934298038,-2.714956284,10.65702594,
9.831460727,9.990633011,2.13559413,-2.523231506,10.52331732,
9.833966769,9.899705887,2.317448616,-2.413161755,10.4497892,
9.836472759,9.847063065,2.43708992,-2.470589399,10.44068342,
9.838978852,9.772586823,2.458625317,-2.726920605,10.43955879,
9.841484894,9.717552185,2.446661234,-3.117249727,10.4944851,
9.843990936,9.612267494,2.492124796,-3.619742393,10.56924346,
9.846496977,9.408877373,2.57617259,-4.17517662,10.61111391,
9.849003019,9.054440498,2.726920605,-4.718646049,10.56809393,
9.851509061,8.563612938,2.992523909,-5.207081318,10.459654,
9.854015102,7.91007328,3.346960783,-5.647659779,10.27946821,
9.856521144,7.189534664,3.854538202,-5.990132332,10.12069952,
9.859027186,6.492924213,4.517649174,-6.167201042,10.03003428,
9.861533227,5.935097694,5.353342533,-6.267699718,10.15715121,
9.864039269,5.58066082,6.246164322,-6.320342064,10.49309619,
9.866545311,5.446662426,7.156035423,-6.363412857,11.01671447,
9.869051352,5.58066082,8.08953476,-6.370591164,11.7119076,
9.871557394,5.93031168,9.008976936,-6.344270229,12.51319411,
9.874063436,6.425626278,9.837491989,-6.310770512,13.33756897,
9.876569477,7.029215813,10.53649521,-6.31316328,14.15216015,
9.879075519,7.680362701,11.06082249,-6.372983932,14.89780821,
9.881581561,8.362615585,11.42692471,-6.361020088,15.52322532,
9.884087654,9.090332985,11.67607689,-6.339484692,16.09826051,
9.886593696,9.875777245,11.8148613,-6.457031727,16.6977598,
9.889099738,10.69681454,11.83161068,-6.7202425,17.30810538,
9.891605779,11.44606686,11.72871971,-7.03400135,17.83402612,
9.894111821,12.04457188,11.51575851,-7.254140854,18.1743491,
9.896617863,12.46840096,11.21874905,-7.258926392,18.27603253,
9.899123904,12.78455257,10.81645584,-7.031608582,18.16270962,
9.901629946,13.01904869,10.3471632,-6.545566559,17.87187334,
9.904135988,13.11236858,9.703194618,-5.779264927,17.30566667,
9.906642029,13.08604813,8.798408508,-4.737788677,16.46521453,
9.909148071,12.89462185,7.560422421,-3.483351469,15.34812683,
9.911654113,12.47557926,6.026024818,-2.19780755,14.02795106,
9.914160154,11.84836006,4.290330887,-0.9625129104,12.63791938,
9.916666196,11.11107159,2.51844573,0.1028913707,11.39337822,
9.919172238,10.32562828,0.794716239,0.9720842242,10.40168837,
9.921678279,9.612267494,-0.7971090674,1.561017632,9.770764826,
9.924184321,8.97308445,-2.171486616,1.93190515,9.432065319,
9.926690363,8.482256889,-3.308675528,2.106880426,9.345317588,
9.929196404,8.20468998,-4.237689018,2.003988981,9.449387161,
9.931702446,8.199904442,-4.900799751,1.561017632,9.679516884,
9.934208488,8.46072197,-5.26690197,0.7636095285,9.995357528,
9.936714529,9.004191399,-5.314758301,-0.2344966233,10.45835107,
9.939220623,9.715159416,-4.802694321,-1.338186026,10.91974986,
9.941726665,10.35673428,-3.148356438,-2.26241374,11.05859887,
9.944232707,11.02014446,-1.18743825,-3.514458179,11.62776891,
9.946738748,11.86750317,0.4668995142,-5.183153152,12.95842209,
9.94924479,12.77498055,0.9601200819,-6.997809887,14.59764713,
9.951750832,13.69412422,0.6104688644,-8.908478737,16.34817127,
9.954256873,14.68295765,0.347258389,-10.88584709,18.28145237,
9.956762915,15.55932903,0.9912267923,-11.78614712,19.54452646,
9.959268957,16.10279846,2.080559254,-10.91934681,19.56683367,
9.961774998,15.97807312,3.356531858,-9.698409081,18.99010967,
9.96428104,14.99910927,4.599005222,-9.205188751,18.18954721,
9.966787082,13.53141212,5.386841774,-8.886942863,17.06150438,
9.969293123,12.09272766,6.34187746,-8.592327118,16.13324386,
9.971799165,11.07278633,8.372187614,-8.164011955,16.10438492,
9.974305207,11.27856922,13.63669586,-8.08953476,19.45780487,
9.976811248,12.86590862,23.04557419,-10.9049902,28.55781689,
9.97931729,15.31256962,34.19971848,-17.26630974,41.25798085,
9.981823332,17.82174301,45.61706924,-22.4638195,53.88093092,
9.984329373,19.44018936,54.32933807,-22.41596222,61.90374221,
9.986835415,18.78395653,54.84409332,-18.33889198,60.80317882,
9.989341457,15.43490219,46.90291214,-9.176474571,50.2227743,
9.99184755,10.00977516,35.05425262,9.461520195,37.66319942,
9.994353592,6.011667728,21.51326942,26.87139893,34.94328248,
9.996859634,6.909275532,9.456734657,36.68227005,38.50658197,
9.999365675,10.98425198,1.309472203,37.35525131,38.95873855,
10.00187172,14.58245945,-3.718147278,31.6498642,35.04549395,
10.00437776,16.93580055,-6.866204739,22.69352913,29.13695887,
10.0068838,18.41785431,-9.530911446,13.2777729,24.62427428,
10.00938984,18.90150452,-14.3383913,2.169093609,23.82354519,
10.01189588,19.73689842,-15.8249321,-6.274878502,26.06430002,
10.01440193,20.54148483,-16.09322739,-14.29502201,29.75386061,
10.01690797,19.68664932,-17.15623856,-20.45265198,33.16943858,
10.01941401,17.60369682,-18.70738602,-23.13171577,34.56779872,
10.02192005,14.98714542,-20.35215378,-22.71985054,33.98553074,
10.02442609,12.36550903,-22.01606178,-21.38166428,33.08758615,
10.02693213,10.64895821,-23.34019089,-21.80070877,33.66653716,
10.02943818,10.19162941,-23.64647102,-25.29123878,36.09254301,
10.03194422,11.44128132,-22.14048958,-31.36751175,40.06276314,
10.03445026,14.13948822,-18.74088669,-37.89632797,44.57889226,
10.0369563,16.97408485,-13.87627792,-42.09064865,47.45833277,
10.03946234,19.52393723,-7.737790108,-42.50251389,47.40802893,
10.04196844,22.01606178,-0.8715856671,-39.96940994,45.64011798,
10.04447448,24.65205574,5.463412285,-35.3967247,43.47989013,
10.04698052,27.40290451,10.56760216,-27.83630371,40.46545682,
10.04948656,30.2446804,15.03978729,-16.99801445,37.81360059,
10.0519926,33.13670349,19.68904114,-2.81545496,38.64746105,
10.05449864,35.68894958,24.28326225,12.46122169,44.92950027,
10.05700469,36.94099426,28.51377106,25.21227455,53.04084261,
10.05951073,36.2491684,30.83839989,33.01467133,57.92216881,
10.06201677,33.71367645,29.36112976,34.9633255,56.75492975,
10.06452281,30.07239723,24.22822571,29.72513771,48.73335416,
10.06702885,25.82274437,17.35723686,19.41147423,36.6727846,
10.06953489,21.66192436,11.01775169,6.672386169,25.20219349,
10.07204094,18.22373772,6.430411816,-5.465805054,20.0830734,
10.07454698,15.83928967,3.79471755,-15.2096777,22.28491135,
10.07705302,14.23520088,3.021237612,-21.46062851,25.92927683,
10.07955906,12.94008541,3.816252947,-23.41915321,27.0271407,
10.0820651,11.44128132,5.731408596,-21.5970192,25.10344998,
10.08457114,9.490233421,7.608577728,-16.50000763,20.4989082,
10.08707719,7.409674644,8.927620888,-10.16770172,15.42685488,
10.08958323,5.343770981,9.432806015,-4.558327198,11.76061497,
10.09208932,3.313461065,9.298808098,-0.5650052428,9.887673498,
10.09459536,1.247258782,8.944371223,1.5011971,9.154836087,
10.0971014,-0.6511468887,8.494221687,1.316650629,8.620287885,
10.09960745,-2.109273195,8.38175869,-0.7181459069,8.672868366,
10.10211349,-2.702992201,9.669695854,-4.271188259,10.91110599,
10.10461953,-2.061416626,11.98714447,-10.0145607,15.75539581,
10.10712557,-0.8763712645,13.67976665,-15.45643806,20.65927201,
10.10963161,0.5841478109,14.45324707,-17.98445511,23.07982247,
10.11213765,2.104487419,14.81695557,-17.51037788,23.03441714,
10.1146437,3.397209883,15.18335724,-14.92971802,21.56320598,
10.11714974,4.388436794,15.30060482,-11.24267673,19.48755155,
10.11965578,5.092225552,14.7643137,-7.16321373,17.18218121,
10.12216182,5.678766251,13.6606245,-4.038785458,15.33534597,
10.12466786,6.380162239,12.40379429,-2.702992201,14.2079819,
10.1271739,7.225427151,11.50857925,-3.107678413,13.93957887,
10.12967995,8.314759254,11.21635628,-4.575077057,14.69262399,
10.13218599,9.62901783,11.58036423,-6.454638958,16.38551751,
10.13469203,10.96750259,12.46122169,-8.245368004,18.53521656,
10.13719807,12.27218914,13.69412422,-9.676874161,20.77925788,
10.13970411,13.45484161,15.07807255,-10.60110188,22.82026283,
10.14221021,14.44606876,16.51914978,-10.9746809,24.53599057,
10.14471625,15.11875057,17.79781532,-10.61067295,25.65005321,
10.14722229,15.29581928,18.8368988,-9.535696983,26.07144724,
10.14972833,14.89861107,19.65315056,-8.060821533,25.94593961,
10.15223437,13.90738392,20.01237297,-6.610172749,25.25083728,
10.15474042,12.60718441,20.08894157,-5.403591633,24.32499691,
10.15724646,11.05364418,19.96212196,-4.486542225,23.25507308,
10.1597525,9.454340935,19.87328911,-3.744468451,22.32382643,
10.16225854,7.895716667,19.80389786,-3.057130098,21.53793761,
10.16476458,6.437590122,19.75364876,-2.427518606,20.91750588,
10.16727062,5.1233325,19.82782555,-1.8840487,20.56552555,
10.16977666,3.89043045,19.80628967,-1.48444736,20.23927231,
10.17228271,2.796312332,19.72732735,-1.213759303,19.96146334,
10.17478875,1.821835399,19.54307938,-0.9122636318,19.64900152,
10.17729479,0.9529415965,19.33221245,-0.6104688644,19.3653094,
10.17980083,0.2033899277,19.10250092,-0.4429712892,19.10871875,
10.18230687,-0.4214358926,18.91586113,-0.4525425732,18.92596643,
10.18481292,-1.02711916,18.62124443,-0.4668995142,18.65539367,
10.18731896,-1.594517231,18.21655846,-0.6559324861,18.29797078,
10.189825,-1.992024899,17.80260086,-0.8691928387,17.93477786,
10.19233104,-2.214557409,17.44098473,-0.8763712645,17.60284748,
10.19483713,-2.267199516,17.09133339,-0.5338985324,17.24931646,
10.19734318,-2.178664923,16.67976761,0.0382851623,16.821495,
10.19984922,-1.960619092,16.17697716,0.7444669604,16.31235263,
10.20235526,-1.575374603,15.62632847,1.350150228,15.76346574,
10.2048613,-0.950548768,15.10678673,1.570588946,15.21792686,
10.20736734,-0.1770688742,14.67817211,1.204187989,14.7285491,
10.20987338,0.5673980713,14.33360577,0.4334000051,14.3513773,
10.21237942,1.182652593,14.08684635,-0.5769693851,14.14817306,
10.21488547,1.58016026,13.89063454,-1.673480392,14.08002738,
10.21739151,1.699801445,13.63908863,-2.477767944,13.96615185,
10.21989755,1.58016026,13.36391449,-2.676671267,13.72062994,
10.22240359,1.333400369,13.2275238,-2.300698996,13.49216656,
10.22490963,0.9337990284,13.00229931,-1.960619092,13.18240476,
10.22741568,0.3951148391,12.64576817,-2.035095692,12.81456916,
10.22992172,-0.1722832322,12.17169094,-2.528316259,12.43270385,
10.23242776,-0.7468597889,11.8220396,-3.215355396,12.27423848,
10.2349338,-1.230509043,11.92014503,-4.108177185,12.6681147,
10.23743984,-1.62801671,12.39183044,-5.199902534,13.53687137,
10.23994588,-2.087737799,12.9831562,-6.322734833,14.59102361,
10.24245193,-2.588136673,13.53380489,-7.230212688,15.56079374,
10.24495802,-3.172284603,13.94327641,-7.522137165,16.15737893,
10.24746406,-3.880859137,14.10838127,-7.024429798,16.2311461,
10.2499701,-4.795515537,13.9863472,-5.740979671,15.86107578,
10.25247614,-5.89441967,13.4213419,-3.79471755,15.14187844,
10.25498219,-7.060322285,12.37268734,-1.551446438,14.32963813,
10.25748823,-7.991429329,11.28574753,0.2153540403,13.83030793,
10.25999427,-8.542078018,10.36151981,1.094118118,13.47313194,
10.26250031,-8.796015739,9.593125343,1.285543919,13.07863028,
10.26500635,-8.721838951,9.008976936,1.175474167,12.59420024,
10.26751239,-8.41047287,8.53729248,1.137188911,12.03804865,
10.27001844,-7.993822098,8.11824894,1.292722464,11.46639826,
10.27252448,-7.440781116,7.855038643,1.505982757,10.92404869,
10.27503052,-6.796812534,7.754539967,1.604088426,10.43564327,
10.27753656,-6.227021694,7.847859859,1.687837243,10.15940442,
10.2800426,-5.796014786,8.084749222,1.845763564,10.11749972,
10.28254864,-5.475376606,8.424829483,2.018345833,10.24847407,
10.28505469,-5.226223946,8.798408508,2.099701881,10.44672949,
10.28756073,-5.092225552,9.15733242,2.200200319,10.70646438,
10.29006677,-5.04676199,9.370592117,2.403590441,10.91123505,
10.29257281,-5.085047245,9.439984322,2.679064035,11.05207644,
10.29507885,-5.293222904,9.291629791,3.083451033,11.12925259,
10.29758495,-5.75772953,8.417651176,3.835395575,10.89580469,
10.30009099,-6.488138676,6.622136593,4.622933388,10.35954389,
10.30259703,-6.954739094,5.113760948,4.354937077,9.668734345,
10.30510307,-6.581458569,4.666004181,2.777169704,8.532283602,
10.30760911,-5.276473045,5.434698582,1.12283206,7.6575367,
10.31011515,-3.473780155,7.146463871,0.4621138871,7.959437397,
10.3126212,-1.517946839,9.286844254,0.8353942037,9.447090678,
10.31512724,0.3161516786,11.42213917,1.551446438,11.5313573,
10.31763328,1.907976985,13.31845093,1.972882271,13.59830047,
10.32013932,3.028416157,14.93928909,1.881655931,15.35885061,
10.32264536,3.598206997,16.29183197,1.448554993,16.74721452,
10.3251514,3.684647799,17.35723686,0.818644464,17.76289615,
10.32765745,3.361317635,18.17827415,0.1531406492,18.48706465,
10.33016349,2.784348249,18.76481438,-0.4142574072,18.97478493,
10.33266953,2.152343988,19.21496391,-0.8811569214,19.35520241,
10.33517557,1.601695657,19.62922096,-1.244866014,19.73376386,
10.33768161,1.223330617,20.01715851,-1.561017632,20.11516713,
10.34018765,0.8931210637,20.3928318,-1.893620014,20.50002563,
10.34269375,0.5458626747,20.72812462,-2.403590441,20.87415539,
10.34519979,0.1770688742,21.07299042,-3.196212769,21.31473797,
10.34770583,-0.2632105052,21.48216438,-4.228117466,21.89588189,
10.35021187,-0.7468597889,22.04716873,-5.396413326,22.71027797,
10.35271792,-1.302293777,22.73211479,-6.681957245,23.72959259,
10.35522396,-1.910369754,23.48375893,-8.027321815,24.8912503,
10.35773,-2.55942297,24.15404892,-9.375378609,26.03586851,
10.36023604,-3.227319479,24.48455811,-10.72792149,26.92577717,
10.36274208,-3.883252144,24.28086853,-12.05414295,27.38507963,
10.36524812,-4.520041943,23.46461678,-13.27538013,27.33596052,
10.36775417,-5.135296345,22.11177444,-14.23759365,26.7957256,
10.37026021,-5.786443233,20.40479469,-14.74995708,25.83408225,
10.37276625,-6.454638958,18.59013748,-14.6709938,24.54574576,
10.37527229,-7.132106781,16.90230179,-13.9552412,23.05002191,
10.37777833,-7.785646915,15.48754501,-12.61914825,21.44115788,
10.38028437,-8.324331284,14.42692566,-10.804492,19.85365766,
10.38279042,-8.66650486,13.7108736,-8.738588333,18.42442095,
10.38529646,-8.6593256,13.20598793,-6.638886452,17.13058231,
10.3878025,-8.084749222,12.8754797,-4.744967461,15.92657727,
10.39030859,-6.897311211,12.65055466,-3.2895329,14.77939315,
10.39281463,-5.50169754,12.56172085,-2.298306227,13.904953,
10.39532068,-4.103391647,12.52822113,-1.781157374,13.30288199,
10.39782672,-2.722134829,12.47318649,-1.66151619,12.8744334,
10.40033276,-1.450947881,12.44207954,-1.7883358,12.65340816,
10.4028388,-0.2584248483,12.37029457,-1.946262121,12.52513103,
10.40534484,0.8500502706,12.23151112,-2.140379906,12.44643225,
10.40785088,1.93190515,11.99193001,-2.40598321,12.38254409,
10.41035692,2.961417198,11.61147118,-2.729313374,12.29005314,
10.41286297,3.998107433,11.09192944,-3.186641455,12.21353534,
10.41536901,5.025226593,10.53649521,-3.708575964,12.24843538,
10.41787505,6.081059456,10.02891827,-4.256831646,12.47714316,
10.42038109,7.194320202,9.612267494,-4.946263313,12.98535522,
10.42288713,8.231010437,9.25783062,-5.650052547,13.61543442,
10.42539318,9.2362957,8.999405861,-6.339484692,14.36967398,
10.42789922,10.1772728,8.776873589,-7.091429234,15.19535324,
10.43040526,11.01775169,8.542078018,-7.802396297,15.97608642,
10.4329113,11.80528927,8.348258972,-8.472685814,16.75842139,
10.43541734,12.57368469,8.190332413,-9.193224907,17.59813842,
10.43792338,13.26820183,8.003393173,-9.870991707,18.37215173,
10.44042943,13.86909962,7.792825222,-10.4790678,19.04969583,
10.44293552,14.50828171,7.646862984,-11.05364418,19.7774569,
10.44544156,15.01107407,7.502994537,-10.94088268,20.03322704,
10.4479476,15.47318745,7.337889671,-10.41924667,20.04556948,
10.45045364,15.92303848,7.144071102,-9.973882675,20.10122489,
10.45295969,16.15065575,6.83509779,-9.554840088,19.97140986,
10.45546573,16.09083557,6.451947212,-8.953942299,19.51193724,
10.45797177,15.77229023,5.978168488,-8.082356453,18.70369277,
10.46047781,15.22403526,5.477769375,-7.007380962,17.63180634,
10.46298385,14.58724499,4.900799751,-5.798407555,16.44466736,
10.46548989,13.98873997,4.445864677,-4.61814785,15.38758747,
10.46799594,13.37587833,3.990929127,-3.5766716,14.40951825,
10.47050198,12.72473145,3.538386583,-2.805883646,13.50229436,
10.47300802,12.10469151,3.136392355,-2.377269268,12.72839042,
10.47551406,11.55165005,2.829811811,-2.271985054,12.10827691,
10.4780201,11.06321526,2.549851656,-2.43708992,11.6118854,
10.48052614,10.68006516,2.35812664,-2.805883646,11.29148068,
10.48303219,10.50778198,2.350948334,-3.490530014,11.31919785,
10.48553823,10.37109184,2.398804665,-4.299902439,11.4805475,
10.48804432,10.17488003,2.449054003,-5.082654476,11.63440697,
10.49055036,9.959526062,2.520838737,-5.745765209,11.77117688,
10.4930564,9.75583744,2.695813894,-6.356234074,11.95179854,
10.49556245,9.495018959,2.959024191,-6.746563435,12.01779212,
10.49806849,9.159725189,3.287140131,-6.859025955,11.90596879,
10.50057453,8.793622971,3.54556489,-6.674778938,11.59532273,
10.50308057,8.391329765,3.64127779,-6.262914181,11.08591057,
10.50558661,8.020143509,3.538386583,-5.760122299,10.48913201,
10.50809265,7.761718273,3.366103172,-5.240580559,9.951814192,
10.5105987,7.613363266,3.200998545,-4.797908306,9.551419581,
10.51310474,7.594220638,3.00688076,-4.457828522,9.305146648,
10.51561078,7.725826263,2.966202736,-4.005286217,9.193969099,
10.51811682,8.01775074,3.153141975,-3.571886063,9.326575003,
10.52062286,8.391329765,3.492922783,-3.318246841,9.676036735,
10.5231289,8.851051331,3.921537161,-3.401995659,10.26124446,
10.52563495,9.277272224,4.249652863,-3.734897137,10.86631428,
10.52814099,9.67926693,4.532006264,-4.141676903,11.46214538,
10.53064703,10.06002426,4.795515537,-4.572684288,12.04618193,
10.53315312,10.40728283,5.008476734,-5.063511848,12.61092888,
10.53565916,10.73270702,5.132903576,-5.563910961,13.13372774,
10.53816521,11.02253723,5.185545921,-5.892026424,13.53152574,
10.54067125,11.27856922,5.192724228,-5.999703884,13.79010353,
10.54317729,11.51815128,5.219045162,-5.870192051,13.94149906,
10.54568333,11.72393322,5.192724228,-5.47298336,13.94161188,
10.54818937,11.93689442,5.195116997,-4.855336189,13.89435059,
10.55069542,12.16451168,5.171188831,-4.069892406,13.83042163,
10.55320146,12.40857983,5.070690155,-3.153141975,13.77051402,
10.5557075,12.64816093,4.886443138,-2.219342947,13.73967921,
10.55821354,12.76540947,4.60379076,-1.342971683,13.63650033,
10.56071958,12.77019501,4.287938118,-0.5937191248,13.48394587,
10.56322562,12.73190975,4.079463482,-0.03589234129,13.36954885,
10.56573167,12.73669624,4.031607151,0.3065803945,13.3630565,
10.56823771,12.84437275,4.1129632,0.4549354017,13.49449309,
10.57074375,12.9759779,4.328616142,0.323330164,13.68274324,
10.57324979,13.09801197,4.52482748,-0.1507478207,13.85838036,
10.57575583,13.14826107,4.637290478,-0.8500502706,13.96795682,
10.57826193,13.11954784,4.730610371,-1.726122379,14.05278295,
